time,signal
0.0,-0.8
0.0028,-0.815
0.0056,-0.825
0.0083,-0.82
0.0111,-0.805
0.0139,-0.8
0.0167,-0.785
0.0194,-0.765
0.0222,-0.755
0.025,-0.755
0.0278,-0.775
0.0306,-0.79
0.0333,-0.82
0.0361,-0.825
0.0389,-0.855
0.0417,-0.865
0.0444,-0.865
0.0472,-0.84
0.05,-0.725
0.0528,-0.58
0.0556,-0.38
0.0583,-0.12
0.0611,0.215
0.0639,0.565
0.0667,0.9
0.0694,1.16
0.0722,1.32
0.075,1.39
0.0778,1.395
0.0806,1.27
0.0833,1.04
0.0861,0.66
0.0889,0.19
0.0917,-0.32
0.0944,-0.705
0.0972,-0.91
0.1,-0.91
0.1028,-0.8
0.1056,-0.66
0.1083,-0.57
0.1111,-0.52
0.1139,-0.55
0.1167,-0.605
0.1194,-0.675
0.1222,-0.725
0.125,-0.745
0.1278,-0.77
0.1306,-0.795
0.1333,-0.795
0.1361,-0.785
0.1389,-0.795
0.1417,-0.805
0.1444,-0.805
0.1472,-0.815
0.15,-0.795
0.1528,-0.79
0.1556,-0.78
0.1583,-0.78
0.1611,-0.805
0.1639,-0.79
0.1667,-0.82
0.1694,-0.825
0.1722,-0.83
0.175,-0.835
0.1778,-0.835
0.1806,-0.82
0.1833,-0.815
0.1861,-0.82
0.1889,-0.815
0.1917,-0.8
0.1944,-0.8
0.1972,-0.8
0.2,-0.82
0.2028,-0.825
0.2056,-0.835
0.2083,-0.845
0.2111,-0.855
0.2139,-0.84
0.2167,-0.835
0.2194,-0.825
0.2222,-0.82
0.225,-0.81
0.2278,-0.815
0.2306,-0.82
0.2333,-0.825
0.2361,-0.85
0.2389,-0.825
0.2417,-0.83
0.2444,-0.83
0.2472,-0.815
0.25,-0.805
0.2528,-0.805
0.2556,-0.79
0.2583,-0.785
0.2611,-0.795
0.2639,-0.795
0.2667,-0.805
0.2694,-0.79
0.2722,-0.81
0.275,-0.795
0.2778,-0.775
0.2806,-0.77
0.2833,-0.755
0.2861,-0.73
0.2889,-0.725
0.2917,-0.72
0.2944,-0.705
0.2972,-0.73
0.3,-0.72
0.3028,-0.73
0.3056,-0.73
0.3083,-0.715
0.3111,-0.685
0.3139,-0.675
0.3167,-0.65
0.3194,-0.645
0.3222,-0.61
0.325,-0.595
0.3278,-0.595
0.3306,-0.585
0.3333,-0.565
0.3361,-0.57
0.3389,-0.57
0.3417,-0.565
0.3444,-0.545
0.3472,-0.525
0.35,-0.505
0.3528,-0.485
0.3556,-0.48
0.3583,-0.445
0.3611,-0.44
0.3639,-0.43
0.3667,-0.44
0.3694,-0.435
0.3722,-0.43
0.375,-0.44
0.3778,-0.405
0.3806,-0.375
0.3833,-0.355
0.3861,-0.335
0.3889,-0.315
0.3917,-0.31
0.3944,-0.31
0.3972,-0.32
0.4,-0.315
0.4028,-0.315
0.4056,-0.32
0.4083,-0.315
0.4111,-0.325
0.4139,-0.325
0.4167,-0.325
0.4194,-0.32
0.4222,-0.33
0.425,-0.335
0.4278,-0.365
0.4306,-0.375
0.4333,-0.42
0.4361,-0.445
0.4389,-0.48
0.4417,-0.51
0.4444,-0.53
0.4472,-0.54
0.45,-0.555
0.4528,-0.56
0.4556,-0.57
0.4583,-0.59
0.4611,-0.62
0.4639,-0.635
0.4667,-0.67
0.4694,-0.675
0.4722,-0.685
0.475,-0.685
0.4778,-0.72
0.4806,-0.705
0.4833,-0.705
0.4861,-0.71
0.4889,-0.705
0.4917,-0.705
0.4944,-0.715
0.4972,-0.73
0.5,-0.73
0.5028,-0.745
0.5056,-0.755
0.5083,-0.755
0.5111,-0.75
0.5139,-0.74
0.5167,-0.73
0.5194,-0.71
0.5222,-0.715
0.525,-0.695
0.5278,-0.705
0.5306,-0.71
0.5333,-0.71
0.5361,-0.74
0.5389,-0.725
0.5417,-0.74
0.5444,-0.74
0.5472,-0.74
0.55,-0.72
0.5528,-0.705
0.5556,-0.695
0.5583,-0.69
0.5611,-0.695
0.5639,-0.695
0.5667,-0.72
0.5694,-0.71
0.5722,-0.715
0.575,-0.74
0.5778,-0.73
0.5806,-0.715
0.5833,-0.695
0.5861,-0.69
0.5889,-0.69
0.5917,-0.69
0.5944,-0.7
0.5972,-0.705
0.6,-0.72
0.6028,-0.72
0.6056,-0.74
0.6083,-0.745
0.6111,-0.755
0.6139,-0.745
0.6167,-0.735
0.6194,-0.715
0.6222,-0.725
0.625,-0.72
0.6278,-0.735
0.6306,-0.745
0.6333,-0.755
0.6361,-0.755
0.6389,-0.76
0.6417,-0.78
0.6444,-0.78
0.6472,-0.77
0.65,-0.77
0.6528,-0.775
0.6556,-0.745
0.6583,-0.745
0.6611,-0.76
0.6639,-0.75
0.6667,-0.765
0.6694,-0.79
0.6722,-0.8
0.675,-0.81
0.6778,-0.82
0.6806,-0.815
0.6833,-0.81
0.6861,-0.805
0.6889,-0.8
0.6917,-0.795
0.6944,-0.8
0.6972,-0.81
0.7,-0.81
0.7028,-0.825
0.7056,-0.835
0.7083,-0.835
0.7111,-0.825
0.7139,-0.815
0.7167,-0.835
0.7194,-0.805
0.7222,-0.815
0.725,-0.79
0.7278,-0.795
0.7306,-0.81
0.7333,-0.815
0.7361,-0.825
0.7389,-0.835
0.7417,-0.835
0.7444,-0.835
0.7472,-0.83
0.75,-0.825
0.7528,-0.825
0.7556,-0.82
0.7583,-0.82
0.7611,-0.825
0.7639,-0.84
0.7667,-0.84
0.7694,-0.86
0.7722,-0.86
0.775,-0.85
0.7778,-0.855
0.7806,-0.83
0.7833,-0.815
0.7861,-0.83
0.7889,-0.825
0.7917,-0.825
0.7944,-0.825
0.7972,-0.83
0.8,-0.83
0.8028,-0.825
0.8056,-0.84
0.8083,-0.84
0.8111,-0.83
0.8139,-0.805
0.8167,-0.78
0.8194,-0.755
0.8222,-0.735
0.825,-0.72
0.8278,-0.715
0.8306,-0.695
0.8333,-0.675
0.8361,-0.67
0.8389,-0.67
0.8417,-0.65
0.8444,-0.65
0.8472,-0.6
0.85,-0.555
0.8528,-0.535
0.8556,-0.52
0.8583,-0.515
0.8611,-0.525
0.8639,-0.555
0.8667,-0.6
0.8694,-0.635
0.8722,-0.67
0.875,-0.68
0.8778,-0.705
0.8806,-0.72
0.8833,-0.73
0.8861,-0.76
0.8889,-0.785
0.8917,-0.82
0.8944,-0.825
0.8972,-0.85
0.9,-0.87
0.9028,-0.86
0.9056,-0.87
0.9083,-0.87
0.9111,-0.87
0.9139,-0.86
0.9167,-0.85
0.9194,-0.85
0.9222,-0.85
0.925,-0.85
0.9278,-0.845
0.9306,-0.845
0.9333,-0.86
0.9361,-0.87
0.9389,-0.88
0.9417,-0.88
0.9444,-0.87
0.9472,-0.86
0.95,-0.855
0.9528,-0.845
0.9556,-0.845
0.9583,-0.84
0.9611,-0.83
0.9639,-0.845
0.9667,-0.855
0.9694,-0.87
0.9722,-0.9
0.975,-0.92
0.9778,-0.91
0.9806,-0.9
0.9833,-0.825
0.9861,-0.695
0.9889,-0.495
0.9917,-0.2
0.9944,0.15
0.9972,0.525
1.0,0.885
1.0028,1.17
1.0056,1.31
1.0083,1.36
1.0111,1.28
1.0139,1.06
1.0167,0.7
1.0194,0.215
1.0222,-0.31
1.025,-0.77
1.0278,-0.98
1.0306,-1.015
1.0333,-0.895
1.0361,-0.75
1.0389,-0.645
1.0417,-0.615
1.0444,-0.64
1.0472,-0.68
1.05,-0.76
1.0528,-0.795
1.0556,-0.825
1.0583,-0.835
1.0611,-0.85
1.0639,-0.845
1.0667,-0.85
1.0694,-0.85
1.0722,-0.85
1.075,-0.855
1.0778,-0.86
1.0806,-0.865
1.0833,-0.855
1.0861,-0.85
1.0889,-0.835
1.0917,-0.835
1.0944,-0.84
1.0972,-0.845
1.1,-0.855
1.1028,-0.89
1.1056,-0.89
1.1083,-0.885
1.1111,-0.875
1.1139,-0.87
1.1167,-0.85
1.1194,-0.875
1.1222,-0.86
1.125,-0.855
1.1278,-0.85
1.1306,-0.845
1.1333,-0.86
1.1361,-0.855
1.1389,-0.875
1.1417,-0.865
1.1444,-0.865
1.1472,-0.86
1.15,-0.85
1.1528,-0.85
1.1556,-0.85
1.1583,-0.84
1.1611,-0.835
1.1639,-0.84
1.1667,-0.84
1.1694,-0.85
1.1722,-0.845
1.175,-0.845
1.1778,-0.85
1.1806,-0.835
1.1833,-0.83
1.1861,-0.815
1.1889,-0.805
1.1917,-0.77
1.1944,-0.785
1.1972,-0.785
1.2,-0.785
1.2028,-0.795
1.2056,-0.8
1.2083,-0.79
1.2111,-0.775
1.2139,-0.765
1.2167,-0.75
1.2194,-0.735
1.2222,-0.725
1.225,-0.725
1.2278,-0.715
1.2306,-0.71
1.2333,-0.71
1.2361,-0.705
1.2389,-0.7
1.2417,-0.685
1.2444,-0.665
1.2472,-0.635
1.25,-0.615
1.2528,-0.585
1.2556,-0.555
1.2583,-0.54
1.2611,-0.53
1.2639,-0.515
1.2667,-0.5
1.2694,-0.495
1.2722,-0.485
1.275,-0.48
1.2778,-0.465
1.2806,-0.445
1.2833,-0.42
1.2861,-0.395
1.2889,-0.38
1.2917,-0.34
1.2944,-0.35
1.2972,-0.345
1.3,-0.335
1.3028,-0.35
1.3056,-0.35
1.3083,-0.34
1.3111,-0.33
1.3139,-0.32
1.3167,-0.305
1.3194,-0.295
1.3222,-0.295
1.325,-0.305
1.3278,-0.31
1.3306,-0.325
1.3333,-0.38
1.3361,-0.405
1.3389,-0.445
1.3417,-0.485
1.3444,-0.52
1.3472,-0.52
1.35,-0.55
1.3528,-0.565
1.3556,-0.59
1.3583,-0.61
1.3611,-0.64
1.3639,-0.665
1.3667,-0.7
1.3694,-0.73
1.3722,-0.755
1.375,-0.775
1.3778,-0.79
1.3806,-0.795
1.3833,-0.79
1.3861,-0.795
1.3889,-0.78
1.3917,-0.8
1.3944,-0.82
1.3972,-0.825
1.4,-0.84
1.4028,-0.845
1.4056,-0.865
1.4083,-0.865
1.4111,-0.87
1.4139,-0.85
1.4167,-0.85
1.4194,-0.84
1.4222,-0.825
1.425,-0.825
1.4278,-0.845
1.4306,-0.855
1.4333,-0.85
1.4361,-0.865
1.4389,-0.875
1.4417,-0.87
1.4444,-0.87
1.4472,-0.875
1.45,-0.845
1.4528,-0.815
1.4556,-0.795
1.4583,-0.795
1.4611,-0.785
1.4639,-0.775
1.4667,-0.785
1.4694,-0.795
1.4722,-0.82
1.475,-0.815
1.4778,-0.82
1.4806,-0.805
1.4833,-0.8
1.4861,-0.77
1.4889,-0.74
1.4917,-0.675
1.4944,-0.6
1.4972,-0.46
1.5,-0.315
1.5028,-0.175
1.5056,-0.035
1.5083,0.12
1.5111,0.32
1.5139,0.53
1.5167,0.75
1.5194,0.995
1.5222,1.24
1.525,1.47
1.5278,1.665
1.5306,1.83
1.5333,1.955
1.5361,2.04
1.5389,2.07
1.5417,2.06
1.5444,2.05
1.5472,2.03
1.55,1.98
1.5528,1.88
1.5556,1.815
1.5583,1.765
1.5611,1.725
1.5639,1.705
1.5667,1.725
1.5694,1.72
1.5722,1.74
1.575,1.69
1.5778,1.62
1.5806,1.5
1.5833,1.36
1.5861,1.195
1.5889,0.985
1.5917,0.76
1.5944,0.45
1.5972,0.06
1.6,-0.34
1.6028,-0.67
1.6056,-0.9
1.6083,-1.02
1.6111,-1.035
1.6139,-1.01
1.6167,-0.96
1.6194,-0.965
1.6222,-0.975
1.625,-1.025
1.6278,-1.075
1.6306,-1.135
1.6333,-1.175
1.6361,-1.2
1.6389,-1.215
1.6417,-1.255
1.6444,-1.27
1.6472,-1.26
1.65,-1.255
1.6528,-1.265
1.6556,-1.29
1.6583,-1.265
1.6611,-1.295
1.6639,-1.31
1.6667,-1.335
1.6694,-1.335
1.6722,-1.365
1.675,-1.365
1.6778,-1.39
1.6806,-1.405
1.6833,-1.405
1.6861,-1.41
1.6889,-1.415
1.6917,-1.43
1.6944,-1.445
1.6972,-1.465
1.7,-1.475
1.7028,-1.49
1.7056,-1.495
1.7083,-1.515
1.7111,-1.525
1.7139,-1.53
1.7167,-1.53
1.7194,-1.535
1.7222,-1.535
1.725,-1.53
1.7278,-1.545
1.7306,-1.555
1.7333,-1.57
1.7361,-1.585
1.7389,-1.6
1.7417,-1.605
1.7444,-1.61
1.7472,-1.62
1.75,-1.625
1.7528,-1.6
1.7556,-1.605
1.7583,-1.62
1.7611,-1.605
1.7639,-1.62
1.7667,-1.655
1.7694,-1.685
1.7722,-1.725
1.775,-1.775
1.7778,-1.825
1.7806,-1.87
1.7833,-1.925
1.7861,-1.96
1.7889,-2.01
1.7917,-2.065
1.7944,-2.125
1.7972,-2.175
1.8,-2.23
1.8028,-2.27
1.8056,-2.29
1.8083,-2.305
1.8111,-2.325
1.8139,-2.325
1.8167,-2.29
1.8194,-2.295
1.8222,-2.275
1.825,-2.26
1.8278,-2.255
1.8306,-2.25
1.8333,-2.225
1.8361,-2.21
1.8389,-2.18
1.8417,-2.14
1.8444,-2.11
1.8472,-2.035
1.85,-1.995
1.8528,-1.93
1.8556,-1.865
1.8583,-1.795
1.8611,-1.73
1.8639,-1.69
1.8667,-1.64
1.8694,-1.575
1.8722,-1.53
1.875,-1.47
1.8778,-1.415
1.8806,-1.36
1.8833,-1.32
1.8861,-1.27
1.8889,-1.235
1.8917,-1.2
1.8944,-1.195
1.8972,-1.18
1.9,-1.17
1.9028,-1.165
1.9056,-1.16
1.9083,-1.16
1.9111,-1.155
1.9139,-1.155
1.9167,-1.125
1.9194,-1.125
1.9222,-1.115
1.925,-1.115
1.9278,-1.145
1.9306,-1.115
1.9333,-1.105
1.9361,-1.12
1.9389,-1.13
1.9417,-1.12
1.9444,-1.115
1.9472,-1.12
1.95,-1.12
1.9528,-1.095
1.9556,-1.09
1.9583,-1.065
1.9611,-1.08
1.9639,-1.08
1.9667,-1.07
1.9694,-1.075
1.9722,-1.085
1.975,-1.085
1.9778,-1.095
1.9806,-1.075
1.9833,-1.055
1.9861,-1.065
1.9889,-1.055
1.9917,-1.055
1.9944,-1.06
1.9972,-1.05
2.0,-1.055
2.0028,-1.07
2.0056,-1.07
2.0083,-1.065
2.0111,-1.065
2.0139,-1.075
2.0167,-1.055
2.0194,-1.06
2.0222,-1.03
2.025,-1.03
2.0278,-1.03
2.0306,-1.025
2.0333,-1.035
2.0361,-1.035
2.0389,-1.045
2.0417,-1.055
2.0444,-1.04
2.0472,-1.04
2.05,-1.035
2.0528,-1.045
2.0556,-1.015
2.0583,-1.005
2.0611,-1.01
2.0639,-1.01
2.0667,-1.005
2.0694,-1.015
2.0722,-1.035
2.075,-1.035
2.0778,-1.03
2.0806,-1.02
2.0833,-1.015
2.0861,-1.005
2.0889,-1.02
2.0917,-1.005
2.0944,-1.0
2.0972,-1.005
2.1,-1.005
2.1028,-1.0
2.1056,-0.995
2.1083,-1.005
2.1111,-1.015
2.1139,-1.015
2.1167,-1.005
2.1194,-0.995
2.1222,-0.98
2.125,-0.975
2.1278,-0.98
2.1306,-0.98
2.1333,-0.99
2.1361,-0.985
2.1389,-0.995
2.1417,-0.98
2.1444,-0.995
2.1472,-0.985
2.15,-0.985
2.1528,-0.995
2.1556,-0.975
2.1583,-0.97
2.1611,-0.99
2.1639,-0.99
2.1667,-0.98
2.1694,-0.99
2.1722,-0.99
2.175,-0.99
2.1778,-1.0
2.1806,-0.995
2.1833,-0.995
2.1861,-0.985
2.1889,-0.975
2.1917,-0.955
2.1944,-0.95
2.1972,-0.965
2.2,-0.96
2.2028,-0.97
2.2056,-0.98
2.2083,-0.97
2.2111,-0.97
2.2139,-0.975
2.2167,-0.965
2.2194,-0.955
2.2222,-0.945
2.225,-0.95
2.2278,-0.96
2.2306,-0.95
2.2333,-0.955
2.2361,-0.985
2.2389,-0.98
2.2417,-0.99
2.2444,-0.97
2.2472,-0.96
2.25,-0.955
2.2528,-0.935
2.2556,-0.93
2.2583,-0.92
2.2611,-0.945
2.2639,-0.94
2.2667,-0.935
2.2694,-0.935
2.2722,-0.955
2.275,-0.955
2.2778,-0.95
2.2806,-0.94
2.2833,-0.945
2.2861,-0.93
2.2889,-0.935
2.2917,-0.935
2.2944,-0.93
2.2972,-0.935
2.3,-0.955
2.3028,-0.945
2.3056,-0.97
2.3083,-0.965
2.3111,-0.955
2.3139,-0.95
2.3167,-0.93
2.3194,-0.92
2.3222,-0.91
2.325,-0.91
2.3278,-0.905
2.3306,-0.915
2.3333,-0.92
2.3361,-0.935
2.3389,-0.94
2.3417,-0.955
2.3444,-0.94
2.3472,-0.925
2.35,-0.91
2.3528,-0.925
2.3556,-0.91
2.3583,-0.9
2.3611,-0.895
2.3639,-0.92
2.3667,-0.905
2.3694,-0.925
2.3722,-0.925
2.375,-0.94
2.3778,-0.94
2.3806,-0.935
2.3833,-0.955
2.3861,-0.935
2.3889,-0.93
2.3917,-0.91
2.3944,-0.9
2.3972,-0.9
2.4,-0.895
2.4028,-0.91
2.4056,-0.915
2.4083,-0.945
2.4111,-0.925
2.4139,-0.92
2.4167,-0.925
2.4194,-0.91
2.4222,-0.91
2.425,-0.9
2.4278,-0.905
2.4306,-0.915
2.4333,-0.91
2.4361,-0.91
2.4389,-0.915
2.4417,-0.915
2.4444,-0.915
2.4472,-0.9
2.45,-0.905
2.4528,-0.91
2.4556,-0.89
2.4583,-0.885
2.4611,-0.905
2.4639,-0.89
2.4667,-0.9
2.4694,-0.92
2.4722,-0.92
2.475,-0.93
2.4778,-0.905
2.4806,-0.915
2.4833,-0.915
2.4861,-0.9
2.4889,-0.895
2.4917,-0.88
2.4944,-0.9
2.4972,-0.875
2.5,-0.88
2.5028,-0.88
2.5056,-0.89
2.5083,-0.89
2.5111,-0.89
2.5139,-0.895
2.5167,-0.88
2.5194,-0.885
2.5222,-0.885
2.525,-0.875
2.5278,-0.88
2.5306,-0.875
2.5333,-0.88
2.5361,-0.9
2.5389,-0.9
2.5417,-0.915
2.5444,-0.9
2.5472,-0.905
2.55,-0.875
2.5528,-0.86
2.5556,-0.86
2.5583,-0.86
2.5611,-0.865
2.5639,-0.89
2.5667,-0.89
2.5694,-0.915
2.5722,-0.91
2.575,-0.91
2.5778,-0.885
2.5806,-0.875
2.5833,-0.86
2.5861,-0.84
2.5889,-0.845
2.5917,-0.83
2.5944,-0.845
2.5972,-0.865
2.6,-0.87
2.6028,-0.88
2.6056,-0.88
2.6083,-0.88
2.6111,-0.87
2.6139,-0.885
2.6167,-0.89
2.6194,-0.865
2.6222,-0.85
2.625,-0.825
2.6278,-0.82
2.6306,-0.81
2.6333,-0.795
2.6361,-0.78
2.6389,-0.78
2.6417,-0.79
2.6444,-0.76
2.6472,-0.765
2.65,-0.755
2.6528,-0.735
2.6556,-0.72
2.6583,-0.7
2.6611,-0.675
2.6639,-0.63
2.6667,-0.595
2.6694,-0.56
2.6722,-0.515
2.675,-0.495
2.6778,-0.505
2.6806,-0.505
2.6833,-0.53
2.6861,-0.54
2.6889,-0.51
2.6917,-0.5
2.6944,-0.51
2.6972,-0.515
2.7,-0.535
2.7028,-0.575
2.7056,-0.62
2.7083,-0.665
2.7111,-0.705
2.7139,-0.765
2.7167,-0.78
2.7194,-0.8
2.7222,-0.81
2.725,-0.82
2.7278,-0.84
2.7306,-0.835
2.7333,-0.85
2.7361,-0.85
2.7389,-0.86
2.7417,-0.87
2.7444,-0.865
2.7472,-0.85
2.75,-0.86
2.7528,-0.86
2.7556,-0.855
2.7583,-0.84
2.7611,-0.83
2.7639,-0.825
2.7667,-0.84
2.7694,-0.835
2.7722,-0.84
2.775,-0.85
2.7778,-0.86
2.7806,-0.875
2.7833,-0.88
2.7861,-0.905
2.7889,-0.92
2.7917,-0.93
2.7944,-0.9
2.7972,-0.835
2.8,-0.7
2.8028,-0.51
2.8056,-0.25
2.8083,0.075
2.8111,0.445
2.8139,0.81
2.8167,1.11
2.8194,1.295
2.8222,1.375
2.825,1.35
2.8278,1.18
2.8306,0.86
2.8333,0.37
2.8361,-0.17
2.8389,-0.65
2.8417,-0.945
2.8444,-1.025
2.8472,-0.925
2.85,-0.76
2.8528,-0.63
2.8556,-0.56
2.8583,-0.555
2.8611,-0.615
2.8639,-0.675
2.8667,-0.75
2.8694,-0.8
2.8722,-0.83
2.875,-0.84
2.8778,-0.845
2.8806,-0.84
2.8833,-0.815
2.8861,-0.81
2.8889,-0.82
2.8917,-0.825
2.8944,-0.83
2.8972,-0.84
2.9,-0.85
2.9028,-0.845
2.9056,-0.865
2.9083,-0.865
2.9111,-0.85
2.9139,-0.865
2.9167,-0.85
2.9194,-0.855
2.9222,-0.845
2.925,-0.855
2.9278,-0.85
2.9306,-0.845
2.9333,-0.865
2.9361,-0.875
2.9389,-0.87
2.9417,-0.865
2.9444,-0.875
2.9472,-0.88
2.95,-0.88
2.9528,-0.865
2.9556,-0.85
2.9583,-0.835
2.9611,-0.855
2.9639,-0.85
2.9667,-0.86
2.9694,-0.855
2.9722,-0.87
2.975,-0.865
2.9778,-0.88
2.9806,-0.86
2.9833,-0.87
2.9861,-0.84
2.9889,-0.835
2.9917,-0.825
2.9944,-0.83
2.9972,-0.825
3.0,-0.83
3.0028,-0.85
3.0056,-0.85
3.0083,-0.85
3.0111,-0.84
3.0139,-0.84
3.0167,-0.815
3.0194,-0.795
3.0222,-0.78
3.025,-0.755
3.0278,-0.765
3.0306,-0.785
3.0333,-0.78
3.0361,-0.775
3.0389,-0.785
3.0417,-0.76
3.0444,-0.76
3.0472,-0.75
3.05,-0.705
3.0528,-0.705
3.0556,-0.685
3.0583,-0.67
3.0611,-0.66
3.0639,-0.655
3.0667,-0.675
3.0694,-0.65
3.0722,-0.64
3.075,-0.615
3.0778,-0.605
3.0806,-0.59
3.0833,-0.58
3.0861,-0.57
3.0889,-0.545
3.0917,-0.5
3.0944,-0.505
3.0972,-0.49
3.1,-0.485
3.1028,-0.485
3.1056,-0.475
3.1083,-0.475
3.1111,-0.455
3.1139,-0.43
3.1167,-0.42
3.1194,-0.41
3.1222,-0.395
3.125,-0.365
3.1278,-0.36
3.1306,-0.36
3.1333,-0.35
3.1361,-0.355
3.1389,-0.345
3.1417,-0.35
3.1444,-0.345
3.1472,-0.345
3.15,-0.325
3.1528,-0.34
3.1556,-0.315
3.1583,-0.32
3.1611,-0.33
3.1639,-0.345
3.1667,-0.36
3.1694,-0.38
3.1722,-0.41
3.175,-0.435
3.1778,-0.485
3.1806,-0.5
3.1833,-0.51
3.1861,-0.535
3.1889,-0.53
3.1917,-0.56
3.1944,-0.58
3.1972,-0.6
3.2,-0.61
3.2028,-0.645
3.2056,-0.665
3.2083,-0.67
3.2111,-0.68
3.2139,-0.695
3.2167,-0.685
3.2194,-0.695
3.2222,-0.69
3.225,-0.69
3.2278,-0.7
3.2306,-0.705
3.2333,-0.725
3.2361,-0.745
3.2389,-0.725
3.2417,-0.725
3.2444,-0.74
3.2472,-0.755
3.25,-0.725
3.2528,-0.715
3.2556,-0.715
3.2583,-0.71
3.2611,-0.715
3.2639,-0.71
3.2667,-0.71
3.2694,-0.73
3.2722,-0.725
3.275,-0.715
3.2778,-0.71
3.2806,-0.72
3.2833,-0.71
3.2861,-0.695
3.2889,-0.68
3.2917,-0.67
3.2944,-0.67
3.2972,-0.685
3.3,-0.695
3.3028,-0.695
3.3056,-0.7
3.3083,-0.695
3.3111,-0.7
3.3139,-0.705
3.3167,-0.7
3.3194,-0.675
3.3222,-0.675
3.325,-0.67
3.3278,-0.675
3.3306,-0.68
3.3333,-0.7
3.3361,-0.7
3.3389,-0.7
3.3417,-0.7
3.3444,-0.715
3.3472,-0.715
3.35,-0.715
3.3528,-0.715
3.3556,-0.715
3.3583,-0.705
3.3611,-0.705
3.3639,-0.73
3.3667,-0.745
3.3694,-0.755
3.3722,-0.76
3.375,-0.775
3.3778,-0.745
3.3806,-0.765
3.3833,-0.76
3.3861,-0.76
3.3889,-0.755
3.3917,-0.75
3.3944,-0.74
3.3972,-0.745
3.4,-0.745
3.4028,-0.77
3.4056,-0.77
3.4083,-0.81
3.4111,-0.82
3.4139,-0.8
3.4167,-0.795
3.4194,-0.78
3.4222,-0.77
3.425,-0.765
3.4278,-0.78
3.4306,-0.775
3.4333,-0.81
3.4361,-0.815
3.4389,-0.82
3.4417,-0.825
3.4444,-0.82
3.4472,-0.83
3.45,-0.82
3.4528,-0.8
3.4556,-0.795
3.4583,-0.795
3.4611,-0.795
3.4639,-0.8
3.4667,-0.82
3.4694,-0.835
3.4722,-0.84
3.475,-0.845
3.4778,-0.85
3.4806,-0.82
3.4833,-0.82
3.4861,-0.815
3.4889,-0.81
3.4917,-0.795
3.4944,-0.805
3.4972,-0.82
3.5,-0.82
3.5028,-0.84
3.5056,-0.845
3.5083,-0.86
3.5111,-0.855
3.5139,-0.855
3.5167,-0.84
3.5194,-0.82
3.5222,-0.81
3.525,-0.805
3.5278,-0.795
3.5306,-0.755
3.5333,-0.755
3.5361,-0.745
3.5389,-0.72
3.5417,-0.715
3.5444,-0.71
3.5472,-0.695
3.55,-0.685
3.5528,-0.655
3.5556,-0.615
3.5583,-0.59
3.5611,-0.565
3.5639,-0.52
3.5667,-0.495
3.5694,-0.495
3.5722,-0.485
3.575,-0.5
3.5778,-0.52
3.5806,-0.53
3.5833,-0.53
3.5861,-0.525
3.5889,-0.52
3.5917,-0.54
3.5944,-0.585
3.5972,-0.635
3.6,-0.7
3.6028,-0.755
3.6056,-0.815
3.6083,-0.855
3.6111,-0.885
3.6139,-0.885
3.6167,-0.87
3.6194,-0.875
3.6222,-0.865
3.625,-0.865
3.6278,-0.855
3.6306,-0.86
3.6333,-0.875
3.6361,-0.89
3.6389,-0.895
3.6417,-0.895
3.6444,-0.895
3.6472,-0.91
3.65,-0.905
3.6528,-0.895
3.6556,-0.895
3.6583,-0.88
3.6611,-0.88
3.6639,-0.87
3.6667,-0.875
3.6694,-0.895
3.6722,-0.9
3.675,-0.9
3.6778,-0.9
3.6806,-0.91
3.6833,-0.9
3.6861,-0.92
3.6889,-0.935
3.6917,-0.955
3.6944,-0.945
3.6972,-0.885
3.7,-0.79
3.7028,-0.63
3.7056,-0.415
3.7083,-0.145
3.7111,0.185
3.7139,0.545
3.7167,0.9
3.7194,1.155
3.7222,1.295
3.725,1.335
3.7278,1.285
3.7306,1.13
3.7333,0.825
3.7361,0.405
3.7389,-0.1
3.7417,-0.585
3.7444,-0.93
3.7472,-1.065
3.75,-1.015
3.7528,-0.84
3.7556,-0.7
3.7583,-0.62
3.7611,-0.605
3.7639,-0.655
3.7667,-0.73
3.7694,-0.81
3.7722,-0.845
3.775,-0.895
3.7778,-0.905
3.7806,-0.9
3.7833,-0.89
3.7861,-0.89
3.7889,-0.875
3.7917,-0.865
3.7944,-0.87
3.7972,-0.875
3.8,-0.895
3.8028,-0.89
3.8056,-0.895
3.8083,-0.9
3.8111,-0.895
3.8139,-0.895
3.8167,-0.89
3.8194,-0.885
3.8222,-0.89
3.825,-0.88
3.8278,-0.88
3.8306,-0.895
3.8333,-0.895
3.8361,-0.895
3.8389,-0.9
3.8417,-0.905
3.8444,-0.905
3.8472,-0.92
3.85,-0.905
3.8528,-0.89
3.8556,-0.89
3.8583,-0.885
3.8611,-0.875
3.8639,-0.88
3.8667,-0.885
3.8694,-0.905
3.8722,-0.895
3.875,-0.9
3.8778,-0.905
3.8806,-0.905
3.8833,-0.885
3.8861,-0.89
3.8889,-0.875
3.8917,-0.87
3.8944,-0.87
3.8972,-0.87
3.9,-0.87
3.9028,-0.87
3.9056,-0.86
3.9083,-0.86
3.9111,-0.875
3.9139,-0.855
3.9167,-0.84
3.9194,-0.835
3.9222,-0.83
3.925,-0.805
3.9278,-0.795
3.9306,-0.795
3.9333,-0.785
3.9361,-0.78
3.9389,-0.775
3.9417,-0.775
3.9444,-0.775
3.9472,-0.765
3.95,-0.75
3.9528,-0.71
3.9556,-0.695
3.9583,-0.675
3.9611,-0.655
3.9639,-0.645
3.9667,-0.63
3.9694,-0.63
3.9722,-0.625
3.975,-0.595
3.9778,-0.585
3.9806,-0.565
3.9833,-0.545
3.9861,-0.535
3.9889,-0.505
3.9917,-0.475
3.9944,-0.44
3.9972,-0.45
4.0,-0.435
4.0028,-0.445
4.0056,-0.425
4.0083,-0.41
4.0111,-0.4
4.0139,-0.375
4.0167,-0.375
4.0194,-0.345
4.0222,-0.34
4.025,-0.325
4.0278,-0.33
4.0306,-0.335
4.0333,-0.33
4.0361,-0.34
4.0389,-0.355
4.0417,-0.365
4.0444,-0.4
4.0472,-0.425
4.05,-0.45
4.0528,-0.47
4.0556,-0.485
4.0583,-0.505
4.0611,-0.53
4.0639,-0.565
4.0667,-0.575
4.0694,-0.625
4.0722,-0.645
4.075,-0.68
4.0778,-0.7
4.0806,-0.72
4.0833,-0.725
4.0861,-0.74
4.0889,-0.75
4.0917,-0.755
4.0944,-0.77
4.0972,-0.79
4.1,-0.8
4.1028,-0.82
4.1056,-0.835
4.1083,-0.845
4.1111,-0.85
4.1139,-0.875
4.1167,-0.865
4.1194,-0.855
4.1222,-0.85
4.125,-0.85
4.1278,-0.86
4.1306,-0.865
4.1333,-0.875
4.1361,-0.88
4.1389,-0.905
4.1417,-0.885
4.1444,-0.885
4.1472,-0.875
4.15,-0.88
4.1528,-0.88
4.1556,-0.85
4.1583,-0.845
4.1611,-0.85
4.1639,-0.845
4.1667,-0.845
4.1694,-0.845
4.1722,-0.855
4.175,-0.865
4.1778,-0.825
4.1806,-0.83
4.1833,-0.83
4.1861,-0.82
4.1889,-0.81
4.1917,-0.815
4.1944,-0.795
4.1972,-0.8
4.2,-0.805
4.2028,-0.785
4.2056,-0.73
4.2083,-0.64
4.2111,-0.515
4.2139,-0.36
4.2167,-0.195
4.2194,-0.015
4.2222,0.165
4.225,0.35
4.2278,0.555
4.2306,0.78
4.2333,1.0
4.2361,1.24
4.2389,1.455
4.2417,1.655
4.2444,1.835
4.2472,1.965
4.25,2.04
4.2528,2.075
4.2556,2.085
4.2583,2.065
4.2611,2.015
4.2639,1.94
4.2667,1.845
4.2694,1.74
4.2722,1.685
4.275,1.665
4.2778,1.695
4.2806,1.715
4.2833,1.73
4.2861,1.71
4.2889,1.64
4.2917,1.525
4.2944,1.375
4.2972,1.2
4.3,1.0
4.3028,0.77
4.3056,0.47
4.3083,0.115
4.3111,-0.25
4.3139,-0.59
4.3167,-0.84
4.3194,-0.985
4.3222,-1.005
4.325,-0.98
4.3278,-0.96
4.3306,-0.955
4.3333,-0.985
4.3361,-1.03
4.3389,-1.085
4.3417,-1.145
4.3444,-1.19
4.3472,-1.225
4.35,-1.25
4.3528,-1.235
4.3556,-1.24
4.3583,-1.23
4.3611,-1.245
4.3639,-1.265
4.3667,-1.285
4.3694,-1.305
4.3722,-1.325
4.375,-1.34
4.3778,-1.355
4.3806,-1.365
4.3833,-1.375
4.3861,-1.385
4.3889,-1.365
4.3917,-1.375
4.3944,-1.375
4.3972,-1.4
4.4,-1.4
4.4028,-1.425
4.4056,-1.435
4.4083,-1.45
4.4111,-1.445
4.4139,-1.45
4.4167,-1.435
4.4194,-1.435
4.4222,-1.425
4.425,-1.435
4.4278,-1.44
4.4306,-1.45
4.4333,-1.455
4.4361,-1.455
4.4389,-1.455
4.4417,-1.465
4.4444,-1.43
4.4472,-1.43
4.45,-1.425
4.4528,-1.435
4.4556,-1.45
4.4583,-1.485
4.4611,-1.52
4.4639,-1.565
4.4667,-1.59
4.4694,-1.625
4.4722,-1.66
4.475,-1.71
4.4778,-1.76
4.4806,-1.83
4.4833,-1.89
4.4861,-1.96
4.4889,-2.025
4.4917,-2.085
4.4944,-2.14
4.4972,-2.18
4.5,-2.22
4.5028,-2.25
4.5056,-2.275
4.5083,-2.28
4.5111,-2.305
4.5139,-2.31
4.5167,-2.32
4.5194,-2.34
4.5222,-2.31
4.525,-2.305
4.5278,-2.32
4.5306,-2.315
4.5333,-2.305
4.5361,-2.315
4.5389,-2.275
4.5417,-2.28
4.5444,-2.24
4.5472,-2.19
4.55,-2.15
4.5528,-2.085
4.5556,-2.03
4.5583,-1.98
4.5611,-1.945
4.5639,-1.885
4.5667,-1.82
4.5694,-1.78
4.5722,-1.705
4.575,-1.665
4.5778,-1.59
4.5806,-1.535
4.5833,-1.485
4.5861,-1.41
4.5889,-1.355
4.5917,-1.295
4.5944,-1.255
4.5972,-1.23
4.6,-1.21
4.6028,-1.195
4.6056,-1.185
4.6083,-1.16
4.6111,-1.17
4.6139,-1.16
4.6167,-1.14
4.6194,-1.12
4.6222,-1.125
4.625,-1.09
4.6278,-1.085
4.6306,-1.075
4.6333,-1.085
4.6361,-1.08
4.6389,-1.09
4.6417,-1.085
4.6444,-1.09
4.6472,-1.09
4.65,-1.085
4.6528,-1.07
4.6556,-1.055
4.6583,-1.055
4.6611,-1.055
4.6639,-1.05
4.6667,-1.05
4.6694,-1.045
4.6722,-1.055
4.675,-1.06
4.6778,-1.06
4.6806,-1.07
4.6833,-1.05
4.6861,-1.045
4.6889,-1.03
4.6917,-1.035
4.6944,-1.04
4.6972,-1.04
4.7,-1.055
4.7028,-1.055
4.7056,-1.04
4.7083,-1.035
4.7111,-1.03
4.7139,-1.025
4.7167,-1.02
4.7194,-1.005
4.7222,-0.995
4.725,-0.975
4.7278,-0.98
4.7306,-0.98
4.7333,-0.965
4.7361,-0.985
4.7389,-0.995
4.7417,-1.0
4.7444,-0.99
4.7472,-0.99
4.75,-0.98
4.7528,-0.98
4.7556,-0.975
4.7583,-0.965
4.7611,-0.98
4.7639,-0.96
4.7667,-0.97
4.7694,-1.0
4.7722,-0.985
4.775,-0.985
4.7778,-0.98
4.7806,-0.98
4.7833,-0.98
4.7861,-0.955
4.7889,-0.95
4.7917,-0.96
4.7944,-0.94
4.7972,-0.955
4.8,-0.94
4.8028,-0.96
4.8056,-0.97
4.8083,-0.965
4.8111,-0.965
4.8139,-0.96
4.8167,-0.94
4.8194,-0.925
4.8222,-0.93
4.825,-0.935
4.8278,-0.92
4.8306,-0.925
4.8333,-0.92
4.8361,-0.935
4.8389,-0.935
4.8417,-0.945
4.8444,-0.95
4.8472,-0.955
4.85,-0.95
4.8528,-0.945
4.8556,-0.93
4.8583,-0.92
4.8611,-0.9
4.8639,-0.91
4.8667,-0.925
4.8694,-0.935
4.8722,-0.935
4.875,-0.94
4.8778,-0.935
4.8806,-0.93
4.8833,-0.935
4.8861,-0.915
4.8889,-0.91
4.8917,-0.88
4.8944,-0.88
4.8972,-0.885
4.9,-0.915
4.9028,-0.91
4.9056,-0.91
4.9083,-0.91
4.9111,-0.915
4.9139,-0.91
4.9167,-0.9
4.9194,-0.89
4.9222,-0.875
4.925,-0.86
4.9278,-0.865
4.9306,-0.88
4.9333,-0.895
4.9361,-0.885
4.9389,-0.89
4.9417,-0.895
4.9444,-0.885
4.9472,-0.88
4.95,-0.87
4.9528,-0.85
4.9556,-0.855
4.9583,-0.85
4.9611,-0.84
4.9639,-0.85
4.9667,-0.845
4.9694,-0.86
4.9722,-0.865
4.975,-0.885
4.9778,-0.885
4.9806,-0.885
4.9833,-0.885
4.9861,-0.89
4.9889,-0.88
4.9917,-0.89
4.9944,-0.87
4.9972,-0.87
5.0,-0.87
5.0028,-0.885
5.0056,-0.885
5.0083,-0.885
5.0111,-0.87
5.0139,-0.86
5.0167,-0.865
5.0194,-0.85
5.0222,-0.845
5.025,-0.855
5.0278,-0.835
5.0306,-0.84
5.0333,-0.835
5.0361,-0.84
5.0389,-0.845
5.0417,-0.865
5.0444,-0.875
5.0472,-0.89
5.05,-0.88
5.0528,-0.86
5.0556,-0.84
5.0583,-0.83
5.0611,-0.835
5.0639,-0.84
5.0667,-0.83
5.0694,-0.84
5.0722,-0.84
5.075,-0.855
5.0778,-0.86
5.0806,-0.865
5.0833,-0.855
5.0861,-0.84
5.0889,-0.84
5.0917,-0.825
5.0944,-0.82
5.0972,-0.805
5.1,-0.81
5.1028,-0.815
5.1056,-0.815
5.1083,-0.84
5.1111,-0.845
5.1139,-0.84
5.1167,-0.825
5.1194,-0.82
5.1222,-0.815
5.125,-0.8
5.1278,-0.8
5.1306,-0.81
5.1333,-0.82
5.1361,-0.835
5.1389,-0.825
5.1417,-0.83
5.1444,-0.835
5.1472,-0.835
5.15,-0.835
5.1528,-0.81
5.1556,-0.805
5.1583,-0.8
5.1611,-0.8
5.1639,-0.795
5.1667,-0.8
5.1694,-0.815
5.1722,-0.825
5.175,-0.84
5.1778,-0.85
5.1806,-0.825
5.1833,-0.825
5.1861,-0.81
5.1889,-0.815
5.1917,-0.815
5.1944,-0.805
5.1972,-0.81
5.2,-0.805
5.2028,-0.825
5.2056,-0.835
5.2083,-0.835
5.2111,-0.84
5.2139,-0.83
5.2167,-0.84
5.2194,-0.84
5.2222,-0.825
5.225,-0.815
5.2278,-0.8
5.2306,-0.81
5.2333,-0.81
5.2361,-0.815
5.2389,-0.825
5.2417,-0.845
5.2444,-0.835
5.2472,-0.83
5.25,-0.825
5.2528,-0.83
5.2556,-0.815
5.2583,-0.795
5.2611,-0.79
5.2639,-0.785
5.2667,-0.795
5.2694,-0.81
5.2722,-0.81
5.275,-0.82
5.2778,-0.815
5.2806,-0.82
5.2833,-0.825
5.2861,-0.8
5.2889,-0.805
5.2917,-0.795
5.2944,-0.785
5.2972,-0.81
5.3,-0.79
5.3028,-0.79
5.3056,-0.81
5.3083,-0.81
5.3111,-0.82
5.3139,-0.81
5.3167,-0.805
5.3194,-0.795
5.3222,-0.79
5.325,-0.77
5.3278,-0.795
5.3306,-0.785
5.3333,-0.79
5.3361,-0.795
5.3389,-0.785
5.3417,-0.79
5.3444,-0.795
5.3472,-0.785
5.35,-0.78
5.3528,-0.765
5.3556,-0.75
5.3583,-0.74
5.3611,-0.73
5.3639,-0.735
5.3667,-0.735
5.3694,-0.71
5.3722,-0.7
5.375,-0.7
5.3778,-0.68
5.3806,-0.665
5.3833,-0.64
5.3861,-0.625
5.3889,-0.58
5.3917,-0.575
5.3944,-0.54
5.3972,-0.5
5.4,-0.45
5.4028,-0.455
5.4056,-0.45
5.4083,-0.465
5.4111,-0.485
5.4139,-0.465
5.4167,-0.455
5.4194,-0.43
5.4222,-0.43
5.425,-0.415
5.4278,-0.42
5.4306,-0.46
5.4333,-0.5
5.4361,-0.565
5.4389,-0.62
5.4417,-0.68
5.4444,-0.745
5.4472,-0.775
5.45,-0.795
5.4528,-0.795
5.4556,-0.79
5.4583,-0.79
5.4611,-0.785
5.4639,-0.785
5.4667,-0.775
5.4694,-0.8
5.4722,-0.805
5.475,-0.81
5.4778,-0.825
5.4806,-0.82
5.4833,-0.825
5.4861,-0.81
5.4889,-0.795
5.4917,-0.795
5.4944,-0.8
5.4972,-0.79
5.5,-0.79
5.5028,-0.84
5.5056,-0.845
5.5083,-0.855
5.5111,-0.895
5.5139,-0.92
5.5167,-0.9
5.5194,-0.845
5.5222,-0.73
5.525,-0.57
5.5278,-0.33
5.5306,-0.04
5.5333,0.295
5.5361,0.675
5.5389,0.995
5.5417,1.245
5.5444,1.375
5.5472,1.42
5.55,1.36
5.5528,1.225
5.5556,0.95
5.5583,0.555
5.5611,0.055
5.5639,-0.435
5.5667,-0.78
5.5694,-0.94
5.5722,-0.925
5.575,-0.79
5.5778,-0.64
5.5806,-0.56
5.5833,-0.535
5.5861,-0.57
5.5889,-0.625
5.5917,-0.695
5.5944,-0.75
5.5972,-0.78
5.6,-0.78
5.6028,-0.8
5.6056,-0.795
5.6083,-0.79
5.6111,-0.79
5.6139,-0.8
5.6167,-0.82
5.6194,-0.82
5.6222,-0.8
5.625,-0.8
5.6278,-0.81
5.6306,-0.82
5.6333,-0.82
5.6361,-0.83
5.6389,-0.83
5.6417,-0.835
5.6444,-0.835
5.6472,-0.845
5.65,-0.855
5.6528,-0.825
5.6556,-0.83
5.6583,-0.83
5.6611,-0.81
5.6639,-0.835
5.6667,-0.835
5.6694,-0.84
5.6722,-0.855
5.675,-0.855
5.6778,-0.86
5.6806,-0.865
5.6833,-0.855
5.6861,-0.84
5.6889,-0.835
5.6917,-0.815
5.6944,-0.815
5.6972,-0.835
5.7,-0.845
5.7028,-0.855
5.7056,-0.845
5.7083,-0.855
5.7111,-0.855
5.7139,-0.84
5.7167,-0.85
5.7194,-0.825
5.7222,-0.835
5.725,-0.81
5.7278,-0.805
5.7306,-0.805
5.7333,-0.8
5.7361,-0.805
5.7389,-0.8
5.7417,-0.81
5.7444,-0.795
5.7472,-0.78
5.75,-0.785
5.7528,-0.77
5.7556,-0.76
5.7583,-0.74
5.7611,-0.735
5.7639,-0.72
5.7667,-0.72
5.7694,-0.72
5.7722,-0.74
5.775,-0.735
5.7778,-0.74
5.7806,-0.72
5.7833,-0.71
5.7861,-0.675
5.7889,-0.655
5.7917,-0.63
5.7944,-0.61
5.7972,-0.595
5.8,-0.585
5.8028,-0.575
5.8056,-0.575
5.8083,-0.56
5.8111,-0.555
5.8139,-0.535
5.8167,-0.515
5.8194,-0.495
5.8222,-0.48
5.825,-0.46
5.8278,-0.44
5.8306,-0.45
5.8333,-0.445
5.8361,-0.43
5.8389,-0.41
5.8417,-0.425
5.8444,-0.415
5.8472,-0.4
5.85,-0.38
5.8528,-0.365
5.8556,-0.355
5.8583,-0.33
5.8611,-0.31
5.8639,-0.3
5.8667,-0.295
5.8694,-0.315
5.8722,-0.33
5.875,-0.32
5.8778,-0.335
5.8806,-0.345
5.8833,-0.35
5.8861,-0.36
5.8889,-0.365
5.8917,-0.38
5.8944,-0.395
5.8972,-0.405
5.9,-0.435
5.9028,-0.475
5.9056,-0.485
5.9083,-0.52
5.9111,-0.555
5.9139,-0.565
5.9167,-0.595
5.9194,-0.615
5.9222,-0.615
5.925,-0.625
5.9278,-0.615
5.9306,-0.62
5.9333,-0.645
5.9361,-0.66
5.9389,-0.675
5.9417,-0.7
5.9444,-0.705
5.9472,-0.73
5.95,-0.74
5.9528,-0.72
5.9556,-0.715
5.9583,-0.69
5.9611,-0.695
5.9639,-0.695
5.9667,-0.7
5.9694,-0.72
5.9722,-0.735
5.975,-0.73
5.9778,-0.73
5.9806,-0.72
5.9833,-0.71
5.9861,-0.705
5.9889,-0.705
5.9917,-0.71
5.9944,-0.7
5.9972,-0.695
6.0,-0.71
6.0028,-0.715
6.0056,-0.71
6.0083,-0.725
6.0111,-0.725
6.0139,-0.735
6.0167,-0.71
6.0194,-0.705
6.0222,-0.69
6.025,-0.67
6.0278,-0.68
6.0306,-0.69
6.0333,-0.68
6.0361,-0.69
6.0389,-0.7
6.0417,-0.7
6.0444,-0.705
6.0472,-0.7
6.05,-0.7
6.0528,-0.69
6.0556,-0.67
6.0583,-0.67
6.0611,-0.675
6.0639,-0.695
6.0667,-0.685
6.0694,-0.68
6.0722,-0.7
6.075,-0.71
6.0778,-0.725
6.0806,-0.735
6.0833,-0.725
6.0861,-0.705
6.0889,-0.71
6.0917,-0.705
6.0944,-0.71
6.0972,-0.7
6.1,-0.695
6.1028,-0.71
6.1056,-0.75
6.1083,-0.755
6.1111,-0.75
6.1139,-0.77
6.1167,-0.755
6.1194,-0.765
6.1222,-0.75
6.125,-0.745
6.1278,-0.735
6.1306,-0.75
6.1333,-0.76
6.1361,-0.765
6.1389,-0.77
6.1417,-0.77
6.1444,-0.8
6.1472,-0.785
6.15,-0.775
6.1528,-0.775
6.1556,-0.755
6.1583,-0.755
6.1611,-0.77
6.1639,-0.76
6.1667,-0.775
6.1694,-0.775
6.1722,-0.775
6.175,-0.795
6.1778,-0.795
6.1806,-0.795
6.1833,-0.805
6.1861,-0.78
6.1889,-0.79
6.1917,-0.785
6.1944,-0.77
6.1972,-0.77
6.2,-0.775
6.2028,-0.785
6.2056,-0.785
6.2083,-0.805
6.2111,-0.795
6.2139,-0.815
6.2167,-0.805
6.2194,-0.795
6.2222,-0.78
6.225,-0.77
6.2278,-0.755
6.2306,-0.755
6.2333,-0.765
6.2361,-0.775
6.2389,-0.77
6.2417,-0.765
6.2444,-0.745
6.2472,-0.73
6.25,-0.71
6.2528,-0.675
6.2556,-0.66
6.2583,-0.63
6.2611,-0.625
6.2639,-0.6
6.2667,-0.595
6.2694,-0.57
6.2722,-0.54
6.275,-0.51
6.2778,-0.485
6.2806,-0.455
6.2833,-0.47
6.2861,-0.465
6.2889,-0.475
6.2917,-0.48
6.2944,-0.465
6.2972,-0.48
6.3,-0.485
6.3028,-0.51
6.3056,-0.545
6.3083,-0.59
6.3111,-0.655
6.3139,-0.715
6.3167,-0.76
6.3194,-0.8
6.3222,-0.82
6.325,-0.8
6.3278,-0.815
6.3306,-0.815
6.3333,-0.805
6.3361,-0.83
6.3389,-0.835
6.3417,-0.85
6.3444,-0.85
6.3472,-0.87
6.35,-0.865
6.3528,-0.865
6.3556,-0.87
6.3583,-0.84
6.3611,-0.835
6.3639,-0.84
6.3667,-0.845
6.3694,-0.855
6.3722,-0.855
6.375,-0.87
6.3778,-0.845
6.3806,-0.845
6.3833,-0.86
6.3861,-0.85
6.3889,-0.84
6.3917,-0.835
6.3944,-0.82
6.3972,-0.84
6.4,-0.86
6.4028,-0.885
6.4056,-0.94
6.4083,-0.92
6.4111,-0.87
6.4139,-0.765
6.4167,-0.605
6.4194,-0.375
6.4222,-0.04
6.425,0.33
6.4278,0.735
6.4306,1.045
6.4333,1.3
6.4361,1.405
6.4389,1.415
6.4417,1.31
6.4444,1.075
6.4472,0.68
6.45,0.19
6.4528,-0.375
6.4556,-0.785
6.4583,-0.985
6.4611,-0.975
6.4639,-0.86
6.4667,-0.71
6.4694,-0.615
6.4722,-0.595
6.475,-0.59
6.4778,-0.655
6.4806,-0.755
6.4833,-0.79
6.4861,-0.81
6.4889,-0.815
6.4917,-0.82
6.4944,-0.805
6.4972,-0.805
6.5,-0.815
6.5028,-0.825
6.5056,-0.845
6.5083,-0.84
6.5111,-0.84
6.5139,-0.86
6.5167,-0.855
6.5194,-0.85
6.5222,-0.845
6.525,-0.82
6.5278,-0.83
6.5306,-0.835
6.5333,-0.82
6.5361,-0.855
6.5389,-0.855
6.5417,-0.865
6.5444,-0.865
6.5472,-0.86
6.55,-0.855
6.5528,-0.86
6.5556,-0.845
6.5583,-0.82
6.5611,-0.815
6.5639,-0.82
6.5667,-0.83
6.5694,-0.86
6.5722,-0.845
6.575,-0.85
6.5778,-0.845
6.5806,-0.865
6.5833,-0.87
6.5861,-0.84
6.5889,-0.83
6.5917,-0.82
6.5944,-0.82
6.5972,-0.83
6.6,-0.82
6.6028,-0.815
6.6056,-0.81
6.6083,-0.845
6.6111,-0.815
6.6139,-0.825
6.6167,-0.825
6.6194,-0.805
6.6222,-0.775
6.625,-0.755
6.6278,-0.735
6.6306,-0.74
6.6333,-0.735
6.6361,-0.72
6.6389,-0.725
6.6417,-0.715
6.6444,-0.715
6.6472,-0.71
6.65,-0.685
6.6528,-0.675
6.6556,-0.66
6.6583,-0.635
6.6611,-0.615
6.6639,-0.615
6.6667,-0.605
6.6694,-0.58
6.6722,-0.57
6.675,-0.56
6.6778,-0.545
6.6806,-0.53
6.6833,-0.525
6.6861,-0.495
6.6889,-0.46
6.6917,-0.43
6.6944,-0.405
6.6972,-0.39
6.7,-0.375
6.7028,-0.37
6.7056,-0.355
6.7083,-0.36
6.7111,-0.34
6.7139,-0.33
6.7167,-0.325
6.7194,-0.285
6.7222,-0.285
6.725,-0.26
6.7278,-0.245
6.7306,-0.235
6.7333,-0.22
6.7361,-0.23
6.7389,-0.245
6.7417,-0.255
6.7444,-0.27
6.7472,-0.28
6.75,-0.305
6.7528,-0.3
6.7556,-0.3
6.7583,-0.33
6.7611,-0.345
6.7639,-0.38
6.7667,-0.42
6.7694,-0.445
6.7722,-0.48
6.775,-0.52
6.7778,-0.545
6.7806,-0.575
6.7833,-0.595
6.7861,-0.605
6.7889,-0.61
6.7917,-0.64
6.7944,-0.64
6.7972,-0.67
6.8,-0.685
6.8028,-0.7
6.8056,-0.725
6.8083,-0.755
6.8111,-0.775
6.8139,-0.785
6.8167,-0.77
6.8194,-0.79
6.8222,-0.785
6.825,-0.795
6.8278,-0.775
6.8306,-0.795
6.8333,-0.805
6.8361,-0.81
6.8389,-0.81
6.8417,-0.82
6.8444,-0.815
6.8472,-0.83
6.85,-0.825
6.8528,-0.815
6.8556,-0.81
6.8583,-0.79
6.8611,-0.795
6.8639,-0.795
6.8667,-0.8
6.8694,-0.815
6.8722,-0.795
6.875,-0.805
6.8778,-0.805
6.8806,-0.795
6.8833,-0.79
6.8861,-0.775
6.8889,-0.77
6.8917,-0.77
6.8944,-0.745
6.8972,-0.76
6.9,-0.77
6.9028,-0.765
6.9056,-0.765
6.9083,-0.775
6.9111,-0.765
6.9139,-0.705
6.9167,-0.61
6.9194,-0.495
6.9222,-0.34
6.925,-0.165
6.9278,-0.005
6.9306,0.17
6.9333,0.365
6.9361,0.555
6.9389,0.77
6.9417,1.005
6.9444,1.24
6.9472,1.465
6.95,1.67
6.9528,1.855
6.9556,1.99
6.9583,2.085
6.9611,2.135
6.9639,2.145
6.9667,2.13
6.9694,2.1
6.9722,2.065
6.975,1.985
6.9778,1.905
6.9806,1.83
6.9833,1.77
6.9861,1.75
6.9889,1.785
6.9917,1.81
6.9944,1.84
6.9972,1.83
7.0,1.76
7.0028,1.66
7.0056,1.515
7.0083,1.34
7.0111,1.16
7.0139,0.95
7.0167,0.705
7.0194,0.39
7.0222,0.01
7.025,-0.36
7.0278,-0.675
7.0306,-0.85
7.0333,-0.945
7.0361,-0.965
7.0389,-0.955
7.0417,-0.955
7.0444,-0.96
7.0472,-0.985
7.05,-1.03
7.0528,-1.07
7.0556,-1.105
7.0583,-1.155
7.0611,-1.17
7.0639,-1.185
7.0667,-1.205
7.0694,-1.24
7.0722,-1.245
7.075,-1.275
7.0778,-1.305
7.0806,-1.285
7.0833,-1.305
7.0861,-1.295
7.0889,-1.31
7.0917,-1.31
7.0944,-1.305
7.0972,-1.33
7.1,-1.345
7.1028,-1.375
7.1056,-1.38
7.1083,-1.39
7.1111,-1.385
7.1139,-1.395
7.1167,-1.38
7.1194,-1.365
7.1222,-1.37
7.125,-1.35
7.1278,-1.35
7.1306,-1.37
7.1333,-1.385
7.1361,-1.38
7.1389,-1.37
7.1417,-1.39
7.1444,-1.355
7.1472,-1.36
7.15,-1.365
7.1528,-1.39
7.1556,-1.395
7.1583,-1.435
7.1611,-1.46
7.1639,-1.49
7.1667,-1.53
7.1694,-1.575
7.1722,-1.615
7.175,-1.655
7.1778,-1.72
7.1806,-1.785
7.1833,-1.88
7.1861,-1.93
7.1889,-1.985
7.1917,-2.04
7.1944,-2.08
7.1972,-2.125
7.2,-2.15
7.2028,-2.18
7.2056,-2.22
7.2083,-2.24
7.2111,-2.27
7.2139,-2.29
7.2167,-2.315
7.2194,-2.325
7.2222,-2.325
7.225,-2.32
7.2278,-2.32
7.2306,-2.315
7.2333,-2.335
7.2361,-2.325
7.2389,-2.33
7.2417,-2.315
7.2444,-2.29
7.2472,-2.27
7.25,-2.24
7.2528,-2.2
7.2556,-2.165
7.2583,-2.095
7.2611,-2.045
7.2639,-2.0
7.2667,-1.93
7.2694,-1.885
7.2722,-1.83
7.275,-1.775
7.2778,-1.73
7.2806,-1.655
7.2833,-1.595
7.2861,-1.53
7.2889,-1.46
7.2917,-1.405
7.2944,-1.355
7.2972,-1.315
7.3,-1.29
7.3028,-1.245
7.3056,-1.24
7.3083,-1.215
7.3111,-1.19
7.3139,-1.18
7.3167,-1.155
7.3194,-1.14
7.3222,-1.125
7.325,-1.095
7.3278,-1.085
7.3306,-1.08
7.3333,-1.105
7.3361,-1.105
7.3389,-1.125
7.3417,-1.11
7.3444,-1.115
7.3472,-1.1
7.35,-1.11
7.3528,-1.09
7.3556,-1.08
7.3583,-1.08
7.3611,-1.07
7.3639,-1.07
7.3667,-1.085
7.3694,-1.09
7.3722,-1.085
7.375,-1.09
7.3778,-1.09
7.3806,-1.075
7.3833,-1.095
7.3861,-1.08
7.3889,-1.065
7.3917,-1.07
7.3944,-1.035
7.3972,-1.045
7.4,-1.055
7.4028,-1.055
7.4056,-1.07
7.4083,-1.055
7.4111,-1.065
7.4139,-1.06
7.4167,-1.06
7.4194,-1.065
7.4222,-1.035
7.425,-1.03
7.4278,-1.025
7.4306,-1.025
7.4333,-1.015
7.4361,-1.015
7.4389,-1.04
7.4417,-1.03
7.4444,-1.025
7.4472,-1.03
7.45,-1.04
7.4528,-1.025
7.4556,-1.03
7.4583,-1.01
7.4611,-0.995
7.4639,-0.98
7.4667,-0.99
7.4694,-0.99
7.4722,-0.985
7.475,-1.0
7.4778,-1.0
7.4806,-1.005
7.4833,-1.0
7.4861,-0.995
7.4889,-0.99
7.4917,-0.97
7.4944,-0.94
7.4972,-0.955
7.5,-0.965
7.5028,-0.975
7.5056,-0.97
7.5083,-0.97
7.5111,-0.985
7.5139,-0.985
7.5167,-0.995
7.5194,-0.99
7.5222,-0.98
7.525,-0.98
7.5278,-0.965
7.5306,-0.96
7.5333,-0.96
7.5361,-0.965
7.5389,-0.96
7.5417,-0.985
7.5444,-0.98
7.5472,-1.0
7.55,-0.98
7.5528,-0.975
7.5556,-0.975
7.5583,-0.955
7.5611,-0.955
7.5639,-0.955
7.5667,-0.95
7.5694,-0.97
7.5722,-0.965
7.575,-0.98
7.5778,-0.97
7.5806,-0.98
7.5833,-0.97
7.5861,-0.955
7.5889,-0.955
7.5917,-0.93
7.5944,-0.935
7.5972,-0.925
7.6,-0.93
7.6028,-0.945
7.6056,-0.935
7.6083,-0.96
7.6111,-0.965
7.6139,-0.975
7.6167,-0.965
7.6194,-0.955
7.6222,-0.945
7.625,-0.935
7.6278,-0.925
7.6306,-0.935
7.6333,-0.925
7.6361,-0.935
7.6389,-0.945
7.6417,-0.95
7.6444,-0.95
7.6472,-0.985
7.65,-0.96
7.6528,-0.94
7.6556,-0.945
7.6583,-0.925
7.6611,-0.925
7.6639,-0.92
7.6667,-0.93
7.6694,-0.935
7.6722,-0.94
7.675,-0.945
7.6778,-0.94
7.6806,-0.94
7.6833,-0.935
7.6861,-0.93
7.6889,-0.91
7.6917,-0.915
7.6944,-0.895
7.6972,-0.9
7.7,-0.905
7.7028,-0.92
7.7056,-0.94
7.7083,-0.935
7.7111,-0.925
7.7139,-0.93
7.7167,-0.935
7.7194,-0.915
7.7222,-0.905
7.725,-0.905
7.7278,-0.905
7.7306,-0.9
7.7333,-0.89
7.7361,-0.9
7.7389,-0.905
7.7417,-0.915
7.7444,-0.92
7.7472,-0.93
7.75,-0.925
7.7528,-0.915
7.7556,-0.935
7.7583,-0.895
7.7611,-0.905
7.7639,-0.91
7.7667,-0.91
7.7694,-0.905
7.7722,-0.9
7.775,-0.91
7.7778,-0.91
7.7806,-0.915
7.7833,-0.91
7.7861,-0.905
7.7889,-0.92
7.7917,-0.895
7.7944,-0.89
7.7972,-0.89
7.8,-0.89
7.8028,-0.9
7.8056,-0.9
7.8083,-0.89
7.8111,-0.905
7.8139,-0.905
7.8167,-0.91
7.8194,-0.905
7.8222,-0.9
7.825,-0.9
7.8278,-0.885
7.8306,-0.88
7.8333,-0.89
7.8361,-0.89
7.8389,-0.895
7.8417,-0.895
7.8444,-0.905
7.8472,-0.9
7.85,-0.89
7.8528,-0.91
7.8556,-0.885
7.8583,-0.89
7.8611,-0.885
7.8639,-0.88
7.8667,-0.885
7.8694,-0.885
7.8722,-0.865
7.875,-0.88
7.8778,-0.88
7.8806,-0.89
7.8833,-0.89
7.8861,-0.875
7.8889,-0.88
7.8917,-0.86
7.8944,-0.86
7.8972,-0.86
7.9,-0.87
7.9028,-0.87
7.9056,-0.88
7.9083,-0.88
7.9111,-0.88
7.9139,-0.89
7.9167,-0.9
7.9194,-0.865
7.9222,-0.87
7.925,-0.86
7.9278,-0.85
7.9306,-0.85
7.9333,-0.85
7.9361,-0.84
7.9389,-0.855
7.9417,-0.865
7.9444,-0.865
7.9472,-0.865
7.95,-0.87
7.9528,-0.845
7.9556,-0.85
7.9583,-0.825
7.9611,-0.835
7.9639,-0.83
7.9667,-0.84
7.9694,-0.86
7.9722,-0.875
7.975,-0.885
7.9778,-0.88
7.9806,-0.885
7.9833,-0.895
7.9861,-0.87
7.9889,-0.87
7.9917,-0.855
7.9944,-0.84
7.9972,-0.83
8.0,-0.85
8.0028,-0.865
8.0056,-0.855
8.0083,-0.865
8.0111,-0.87
8.0139,-0.87
8.0167,-0.88
8.0194,-0.86
8.0222,-0.86
8.025,-0.845
8.0278,-0.83
8.0306,-0.835
8.0333,-0.815
8.0361,-0.83
8.0389,-0.845
8.0417,-0.845
8.0444,-0.85
8.0472,-0.855
8.05,-0.865
8.0528,-0.86
8.0556,-0.845
8.0583,-0.825
8.0611,-0.815
8.0639,-0.82
8.0667,-0.815
8.0694,-0.81
8.0722,-0.83
8.075,-0.825
8.0778,-0.825
8.0806,-0.805
8.0833,-0.8
8.0861,-0.78
8.0889,-0.745
8.0917,-0.735
8.0944,-0.705
8.0972,-0.675
8.1,-0.685
8.1028,-0.68
8.1056,-0.675
8.1083,-0.65
8.1111,-0.63
8.1139,-0.595
8.1167,-0.525
8.1194,-0.505
8.1222,-0.465
8.125,-0.465
8.1278,-0.475
8.1306,-0.48
8.1333,-0.475
8.1361,-0.475
8.1389,-0.485
8.1417,-0.495
8.1444,-0.49
8.1472,-0.505
8.15,-0.545
8.1528,-0.58
8.1556,-0.61
8.1583,-0.67
8.1611,-0.7
8.1639,-0.765
8.1667,-0.805
8.1694,-0.83
8.1722,-0.84
8.175,-0.845
8.1778,-0.855
8.1806,-0.84
8.1833,-0.85
8.1861,-0.825
8.1889,-0.815
8.1917,-0.81
8.1944,-0.8
8.1972,-0.815
8.2,-0.825
8.2028,-0.82
8.2056,-0.835
8.2083,-0.82
8.2111,-0.835
8.2139,-0.835
8.2167,-0.84
8.2194,-0.84
8.2222,-0.84
8.225,-0.845
8.2278,-0.865
8.2306,-0.88
8.2333,-0.885
8.2361,-0.85
8.2389,-0.775
8.2417,-0.615
8.2444,-0.39
8.2472,-0.105
8.25,0.28
8.2528,0.675
8.2556,1.03
8.2583,1.29
8.2611,1.42
8.2639,1.43
8.2667,1.32
8.2694,1.055
8.2722,0.63
8.275,0.105
8.2778,-0.43
8.2806,-0.84
8.2833,-0.975
8.2861,-0.94
8.2889,-0.795
8.2917,-0.66
8.2944,-0.565
8.2972,-0.55
8.3,-0.595
8.3028,-0.655
8.3056,-0.74
8.3083,-0.785
8.3111,-0.82
8.3139,-0.835
8.3167,-0.825
8.3194,-0.8
8.3222,-0.785
8.325,-0.79
8.3278,-0.785
8.3306,-0.785
8.3333,-0.8
8.3361,-0.81
8.3389,-0.825
8.3417,-0.845
8.3444,-0.855
8.3472,-0.84
8.35,-0.83
8.3528,-0.83
8.3556,-0.83
8.3583,-0.83
8.3611,-0.82
8.3639,-0.825
8.3667,-0.84
8.3694,-0.825
8.3722,-0.83
8.375,-0.84
8.3778,-0.85
8.3806,-0.865
8.3833,-0.85
8.3861,-0.84
8.3889,-0.845
8.3917,-0.84
8.3944,-0.825
8.3972,-0.82
8.4,-0.825
8.4028,-0.83
8.4056,-0.85
8.4083,-0.83
8.4111,-0.835
8.4139,-0.84
8.4167,-0.845
8.4194,-0.85
8.4222,-0.82
8.425,-0.81
8.4278,-0.795
8.4306,-0.795
8.4333,-0.79
8.4361,-0.79
8.4389,-0.8
8.4417,-0.81
8.4444,-0.81
8.4472,-0.825
8.45,-0.81
8.4528,-0.81
8.4556,-0.78
8.4583,-0.755
8.4611,-0.75
8.4639,-0.74
8.4667,-0.73
8.4694,-0.735
8.4722,-0.725
8.475,-0.725
8.4778,-0.715
8.4806,-0.73
8.4833,-0.715
8.4861,-0.69
8.4889,-0.67
8.4917,-0.665
8.4944,-0.65
8.4972,-0.635
8.5,-0.625
8.5028,-0.605
8.5056,-0.625
8.5083,-0.615
8.5111,-0.61
8.5139,-0.605
8.5167,-0.585
8.5194,-0.56
8.5222,-0.535
8.525,-0.525
8.5278,-0.51
8.5306,-0.47
8.5333,-0.44
8.5361,-0.44
8.5389,-0.425
8.5417,-0.43
8.5444,-0.42
8.5472,-0.41
8.55,-0.395
8.5528,-0.375
8.5556,-0.355
8.5583,-0.34
8.5611,-0.325
8.5639,-0.32
8.5667,-0.295
8.5694,-0.295
8.5722,-0.3
8.575,-0.305
8.5778,-0.305
8.5806,-0.305
8.5833,-0.315
8.5861,-0.31
8.5889,-0.305
8.5917,-0.295
8.5944,-0.295
8.5972,-0.305
8.6,-0.33
8.6028,-0.35
8.6056,-0.385
8.6083,-0.4
8.6111,-0.425
8.6139,-0.465
8.6167,-0.485
8.6194,-0.49
8.6222,-0.5
8.625,-0.505
8.6278,-0.53
8.6306,-0.535
8.6333,-0.565
8.6361,-0.6
8.6389,-0.61
8.6417,-0.625
8.6444,-0.65
8.6472,-0.66
8.65,-0.665
8.6528,-0.69
8.6556,-0.685
8.6583,-0.685
8.6611,-0.67
8.6639,-0.67
8.6667,-0.68
8.6694,-0.67
8.6722,-0.68
8.675,-0.695
8.6778,-0.7
8.6806,-0.71
8.6833,-0.7
8.6861,-0.7
8.6889,-0.69
8.6917,-0.69
8.6944,-0.68
8.6972,-0.665
8.7,-0.67
8.7028,-0.67
8.7056,-0.68
8.7083,-0.685
8.7111,-0.7
8.7139,-0.68
8.7167,-0.68
8.7194,-0.685
8.7222,-0.675
8.725,-0.675
8.7278,-0.66
8.7306,-0.67
8.7333,-0.66
8.7361,-0.69
8.7389,-0.68
8.7417,-0.685
8.7444,-0.695
8.7472,-0.69
8.75,-0.68
8.7528,-0.67
8.7556,-0.655
8.7583,-0.655
8.7611,-0.65
8.7639,-0.635
8.7667,-0.655
8.7694,-0.65
8.7722,-0.665
8.775,-0.68
8.7778,-0.685
8.7806,-0.7
8.7833,-0.695
8.7861,-0.68
8.7889,-0.675
8.7917,-0.67
8.7944,-0.67
8.7972,-0.685
8.8,-0.69
8.8028,-0.71
8.8056,-0.715
8.8083,-0.715
8.8111,-0.735
8.8139,-0.735
8.8167,-0.73
8.8194,-0.73
8.8222,-0.725
8.825,-0.725
8.8278,-0.715
8.8306,-0.72
8.8333,-0.72
8.8361,-0.745
8.8389,-0.755
8.8417,-0.765
8.8444,-0.77
8.8472,-0.765
8.85,-0.77
8.8528,-0.76
8.8556,-0.755
8.8583,-0.76
8.8611,-0.755
8.8639,-0.735
8.8667,-0.745
8.8694,-0.76
8.8722,-0.77
8.875,-0.795
8.8778,-0.8
8.8806,-0.8
8.8833,-0.79
8.8861,-0.79
8.8889,-0.765
8.8917,-0.775
8.8944,-0.76
8.8972,-0.77
8.9,-0.765
8.9028,-0.77
8.9056,-0.785
8.9083,-0.79
8.9111,-0.815
8.9139,-0.81
8.9167,-0.8
8.9194,-0.795
8.9222,-0.785
8.925,-0.785
8.9278,-0.775
8.9306,-0.775
8.9333,-0.765
8.9361,-0.79
8.9389,-0.795
8.9417,-0.79
8.9444,-0.805
8.9472,-0.815
8.95,-0.8
8.9528,-0.8
8.9556,-0.79
8.9583,-0.78
8.9611,-0.76
8.9639,-0.755
8.9667,-0.745
8.9694,-0.73
8.9722,-0.715
8.975,-0.7
8.9778,-0.705
8.9806,-0.69
8.9833,-0.69
8.9861,-0.67
8.9889,-0.66
8.9917,-0.655
8.9944,-0.61
8.9972,-0.57
9.0,-0.53
9.0028,-0.5
9.0056,-0.465
9.0083,-0.45
9.0111,-0.465
9.0139,-0.485
9.0167,-0.5
9.0194,-0.51
9.0222,-0.5
9.025,-0.49
9.0278,-0.475
9.0306,-0.49
9.0333,-0.51
9.0361,-0.545
9.0389,-0.59
9.0417,-0.65
9.0444,-0.71
9.0472,-0.765
9.05,-0.8
9.0528,-0.82
9.0556,-0.83
9.0583,-0.825
9.0611,-0.825
9.0639,-0.83
9.0667,-0.825
9.0694,-0.825
9.0722,-0.84
9.075,-0.845
9.0778,-0.855
9.0806,-0.87
9.0833,-0.86
9.0861,-0.865
9.0889,-0.86
9.0917,-0.855
9.0944,-0.84
9.0972,-0.835
9.1,-0.83
9.1028,-0.845
9.1056,-0.86
9.1083,-0.86
9.1111,-0.855
9.1139,-0.86
9.1167,-0.87
9.1194,-0.86
9.1222,-0.835
9.125,-0.84
9.1278,-0.84
9.1306,-0.865
9.1333,-0.9
9.1361,-0.93
9.1389,-0.92
9.1417,-0.88
9.1444,-0.775
9.1472,-0.625
9.15,-0.395
9.1528,-0.12
9.1556,0.235
9.1583,0.605
9.1611,0.965
9.1639,1.215
9.1667,1.35
9.1694,1.395
9.1722,1.335
9.175,1.14
9.1778,0.79
9.1806,0.335
9.1833,-0.215
9.1861,-0.67
9.1889,-0.94
9.1917,-0.99
9.1944,-0.895
9.1972,-0.76
9.2,-0.62
9.2028,-0.57
9.2056,-0.59
9.2083,-0.64
9.2111,-0.71
9.2139,-0.78
9.2167,-0.83
9.2194,-0.845
9.2222,-0.85
9.225,-0.84
9.2278,-0.82
9.2306,-0.815
9.2333,-0.815
9.2361,-0.815
9.2389,-0.835
9.2417,-0.855
9.2444,-0.86
9.2472,-0.86
9.25,-0.875
9.2528,-0.86
9.2556,-0.85
9.2583,-0.84
9.2611,-0.835
9.2639,-0.835
9.2667,-0.83
9.2694,-0.84
9.2722,-0.855
9.275,-0.865
9.2778,-0.875
9.2806,-0.89
9.2833,-0.875
9.2861,-0.865
9.2889,-0.855
9.2917,-0.85
9.2944,-0.83
9.2972,-0.845
9.3,-0.835
9.3028,-0.865
9.3056,-0.87
9.3083,-0.88
9.3111,-0.885
9.3139,-0.88
9.3167,-0.875
9.3194,-0.86
9.3222,-0.845
9.325,-0.83
9.3278,-0.835
9.3306,-0.815
9.3333,-0.83
9.3361,-0.83
9.3389,-0.825
9.3417,-0.82
9.3444,-0.83
9.3472,-0.825
9.35,-0.82
9.3528,-0.8
9.3556,-0.785
9.3583,-0.785
9.3611,-0.76
9.3639,-0.755
9.3667,-0.755
9.3694,-0.76
9.3722,-0.76
9.375,-0.755
9.3778,-0.75
9.3806,-0.74
9.3833,-0.745
9.3861,-0.72
9.3889,-0.705
9.3917,-0.685
9.3944,-0.67
9.3972,-0.65
9.4,-0.635
9.4028,-0.645
9.4056,-0.625
9.4083,-0.605
9.4111,-0.605
9.4139,-0.58
9.4167,-0.585
9.4194,-0.565
9.4222,-0.515
9.425,-0.485
9.4278,-0.45
9.4306,-0.44
9.4333,-0.435
9.4361,-0.425
9.4389,-0.41
9.4417,-0.41
9.4444,-0.41
9.4472,-0.385
9.45,-0.37
9.4528,-0.365
9.4556,-0.33
9.4583,-0.31
9.4611,-0.295
9.4639,-0.295
9.4667,-0.29
9.4694,-0.285
9.4722,-0.285
9.475,-0.295
9.4778,-0.29
9.4806,-0.305
9.4833,-0.31
9.4861,-0.32
9.4889,-0.335
9.4917,-0.35
9.4944,-0.365
9.4972,-0.4
9.5,-0.435
9.5028,-0.465
9.5056,-0.505
9.5083,-0.545
9.5111,-0.6
9.5139,-0.62
9.5167,-0.635
9.5194,-0.665
9.5222,-0.675
9.525,-0.68
9.5278,-0.71
9.5306,-0.725
9.5333,-0.75
9.5361,-0.755
9.5389,-0.77
9.5417,-0.795
9.5444,-0.8
9.5472,-0.82
9.55,-0.83
9.5528,-0.84
9.5556,-0.825
9.5583,-0.83
9.5611,-0.815
9.5639,-0.825
9.5667,-0.835
9.5694,-0.835
9.5722,-0.835
9.575,-0.855
9.5778,-0.86
9.5806,-0.88
9.5833,-0.87
9.5861,-0.87
9.5889,-0.845
9.5917,-0.84
9.5944,-0.835
9.5972,-0.825
9.6,-0.825
9.6028,-0.82
9.6056,-0.825
9.6083,-0.815
9.6111,-0.83
9.6139,-0.82
9.6167,-0.81
9.6194,-0.785
9.6222,-0.775
9.625,-0.785
9.6278,-0.78
9.6306,-0.785
9.6333,-0.785
9.6361,-0.78
9.6389,-0.785
9.6417,-0.745
9.6444,-0.67
9.6472,-0.565
9.65,-0.435
9.6528,-0.27
9.6556,-0.1
9.6583,0.065
9.6611,0.245
9.6639,0.445
9.6667,0.65
9.6694,0.89
9.6722,1.12
9.675,1.34
9.6778,1.54
9.6806,1.72
9.6833,1.855
9.6861,1.975
9.6889,2.06
9.6917,2.085
9.6944,2.075
9.6972,2.06
9.7,1.995
9.7028,1.895
9.7056,1.83
9.7083,1.745
9.7111,1.7
9.7139,1.675
9.7167,1.7
9.7194,1.72
9.7222,1.74
9.725,1.725
9.7278,1.635
9.7306,1.51
9.7333,1.34
9.7361,1.145
9.7389,0.9
9.7417,0.625
9.7444,0.295
9.7472,-0.12
9.75,-0.5
9.7528,-0.81
9.7556,-0.965
9.7583,-1.03
9.7611,-1.02
9.7639,-0.99
9.7667,-0.99
9.7694,-1.0
9.7722,-1.06
9.775,-1.115
9.7778,-1.17
9.7806,-1.225
9.7833,-1.265
9.7861,-1.27
9.7889,-1.26
9.7917,-1.265
9.7944,-1.265
9.7972,-1.285
9.8,-1.285
9.8028,-1.295
9.8056,-1.325
9.8083,-1.345
9.8111,-1.37
9.8139,-1.395
9.8167,-1.405
9.8194,-1.43
9.8222,-1.415
9.825,-1.415
9.8278,-1.42
9.8306,-1.43
9.8333,-1.445
9.8361,-1.45
9.8389,-1.47
9.8417,-1.47
9.8444,-1.48
9.8472,-1.485
9.85,-1.48
9.8528,-1.475
9.8556,-1.475
9.8583,-1.5
9.8611,-1.48
9.8639,-1.49
9.8667,-1.48
9.8694,-1.495
9.8722,-1.48
9.875,-1.46
9.8778,-1.47
9.8806,-1.47
9.8833,-1.49
9.8861,-1.54
9.8889,-1.56
9.8917,-1.62
9.8944,-1.635
9.8972,-1.65
9.9,-1.68
9.9028,-1.72
9.9056,-1.78
9.9083,-1.845
9.9111,-1.91
9.9139,-2.0
9.9167,-2.065
9.9194,-2.135
9.9222,-2.175
9.925,-2.215
9.9278,-2.26
9.9306,-2.285
9.9333,-2.3
9.9361,-2.32
9.9389,-2.325
9.9417,-2.345
9.9444,-2.38
9.9472,-2.385
9.95,-2.385
9.9528,-2.365
9.9556,-2.36
9.9583,-2.34
9.9611,-2.33
9.9639,-2.305
9.9667,-2.275
9.9694,-2.25
9.9722,-2.235
9.975,-2.205
9.9778,-2.155
9.9806,-2.125
9.9833,-2.08
9.9861,-2.02
9.9889,-1.95
9.9917,-1.895
9.9944,-1.84
9.9972,-1.765
10.0,-1.72
10.0028,-1.66
10.0056,-1.61
10.0083,-1.56
10.0111,-1.515
10.0139,-1.47
10.0167,-1.42
10.0194,-1.38
10.0222,-1.335
10.025,-1.3
10.0278,-1.28
10.0306,-1.235
10.0333,-1.215
10.0361,-1.2
10.0389,-1.18
10.0417,-1.195
10.0444,-1.2
10.0472,-1.185
10.05,-1.175
10.0528,-1.175
10.0556,-1.16
10.0583,-1.145
10.0611,-1.145
10.0639,-1.13
10.0667,-1.135
10.0694,-1.135
10.0722,-1.145
10.075,-1.145
10.0778,-1.165
10.0806,-1.145
10.0833,-1.15
10.0861,-1.145
10.0889,-1.15
10.0917,-1.135
10.0944,-1.12
10.0972,-1.105
10.1,-1.105
10.1028,-1.115
10.1056,-1.11
10.1083,-1.12
10.1111,-1.135
10.1139,-1.145
10.1167,-1.135
10.1194,-1.12
10.1222,-1.11
10.125,-1.09
10.1278,-1.095
10.1306,-1.08
10.1333,-1.08
10.1361,-1.08
10.1389,-1.08
10.1417,-1.085
10.1444,-1.1
10.1472,-1.085
10.15,-1.095
10.1528,-1.095
10.1556,-1.09
10.1583,-1.065
10.1611,-1.075
10.1639,-1.04
10.1667,-1.05
10.1694,-1.05
10.1722,-1.07
10.175,-1.07
10.1778,-1.075
10.1806,-1.08
10.1833,-1.085
10.1861,-1.085
10.1889,-1.07
10.1917,-1.055
10.1944,-1.045
10.1972,-1.045
10.2,-1.04
10.2028,-1.035
10.2056,-1.045
10.2083,-1.035
10.2111,-1.07
10.2139,-1.065
10.2167,-1.055
10.2194,-1.08
10.2222,-1.06
10.225,-1.045
10.2278,-1.03
10.2306,-1.025
10.2333,-1.045
10.2361,-1.04
10.2389,-1.05
10.2417,-1.035
10.2444,-1.045
10.2472,-1.045
10.25,-1.04
10.2528,-1.04
10.2556,-1.025
10.2583,-1.01
10.2611,-1.01
10.2639,-1.01
10.2667,-1.0
10.2694,-1.0
10.2722,-1.025
10.275,-1.03
10.2778,-1.02
10.2806,-1.025
10.2833,-1.035
10.2861,-1.02
10.2889,-1.005
10.2917,-1.01
10.2944,-1.015
10.2972,-0.99
10.3,-0.995
10.3028,-1.01
10.3056,-1.015
10.3083,-1.01
10.3111,-1.02
10.3139,-1.015
10.3167,-1.01
10.3194,-1.01
10.3222,-1.0
10.325,-1.005
10.3278,-0.985
10.3306,-0.98
10.3333,-0.99
10.3361,-0.985
10.3389,-1.01
10.3417,-1.01
10.3444,-1.02
10.3472,-1.025
10.35,-1.025
10.3528,-1.01
10.3556,-1.015
10.3583,-0.98
10.3611,-0.98
10.3639,-0.975
10.3667,-0.97
10.3694,-0.98
10.3722,-0.99
10.375,-0.995
10.3778,-1.01
10.3806,-0.98
10.3833,-0.975
10.3861,-0.98
10.3889,-0.955
10.3917,-0.955
10.3944,-0.95
10.3972,-0.95
10.4,-0.965
10.4028,-0.955
10.4056,-0.965
10.4083,-0.97
10.4111,-0.985
10.4139,-0.98
10.4167,-0.985
10.4194,-0.955
10.4222,-0.95
10.425,-0.96
10.4278,-0.945
10.4306,-0.945
10.4333,-0.945
10.4361,-0.945
10.4389,-0.95
10.4417,-0.95
10.4444,-0.96
10.4472,-0.97
10.45,-0.96
10.4528,-0.97
10.4556,-0.945
10.4583,-0.93
10.4611,-0.935
10.4639,-0.935
10.4667,-0.92
10.4694,-0.93
10.4722,-0.94
10.475,-0.935
10.4778,-0.95
10.4806,-0.95
10.4833,-0.94
10.4861,-0.955
10.4889,-0.92
10.4917,-0.935
10.4944,-0.92
10.4972,-0.92
10.5,-0.915
10.5028,-0.925
10.5056,-0.915
10.5083,-0.925
10.5111,-0.93
10.5139,-0.935
10.5167,-0.94
10.5194,-0.94
10.5222,-0.935
10.525,-0.92
10.5278,-0.935
10.5306,-0.925
10.5333,-0.925
10.5361,-0.925
10.5389,-0.915
10.5417,-0.93
10.5444,-0.925
10.5472,-0.935
10.55,-0.94
10.5528,-0.935
10.5556,-0.925
10.5583,-0.915
10.5611,-0.9
10.5639,-0.9
10.5667,-0.9
10.5694,-0.91
10.5722,-0.91
10.575,-0.93
10.5778,-0.93
10.5806,-0.93
10.5833,-0.93
10.5861,-0.92
10.5889,-0.91
10.5917,-0.91
10.5944,-0.9
10.5972,-0.88
10.6,-0.87
10.6028,-0.885
10.6056,-0.885
10.6083,-0.89
10.6111,-0.9
10.6139,-0.9
10.6167,-0.9
10.6194,-0.9
10.6222,-0.895
10.625,-0.885
10.6278,-0.885
10.6306,-0.895
10.6333,-0.885
10.6361,-0.885
10.6389,-0.895
10.6417,-0.91
10.6444,-0.91
10.6472,-0.91
10.65,-0.895
10.6528,-0.905
10.6556,-0.9
10.6583,-0.885
10.6611,-0.88
10.6639,-0.87
10.6667,-0.885
10.6694,-0.88
10.6722,-0.87
10.675,-0.89
10.6778,-0.885
10.6806,-0.895
10.6833,-0.915
10.6861,-0.895
10.6889,-0.89
10.6917,-0.885
10.6944,-0.88
10.6972,-0.885
10.7,-0.88
10.7028,-0.875
10.7056,-0.88
10.7083,-0.88
10.7111,-0.875
10.7139,-0.89
10.7167,-0.905
10.7194,-0.91
10.7222,-0.89
10.725,-0.87
10.7278,-0.865
10.7306,-0.855
10.7333,-0.865
10.7361,-0.885
10.7389,-0.88
10.7417,-0.87
10.7444,-0.87
10.7472,-0.875
10.75,-0.875
10.7528,-0.885
10.7556,-0.875
10.7583,-0.855
10.7611,-0.855
10.7639,-0.855
10.7667,-0.855
10.7694,-0.86
10.7722,-0.855
10.775,-0.875
10.7778,-0.88
10.7806,-0.875
10.7833,-0.885
10.7861,-0.875
10.7889,-0.87
10.7917,-0.86
10.7944,-0.835
10.7972,-0.815
10.8,-0.825
10.8028,-0.815
10.8056,-0.815
10.8083,-0.795
10.8111,-0.795
10.8139,-0.785
10.8167,-0.775
10.8194,-0.75
10.8222,-0.72
10.825,-0.695
10.8278,-0.69
10.8306,-0.67
10.8333,-0.67
10.8361,-0.65
10.8389,-0.615
10.8417,-0.57
10.8444,-0.53
10.8472,-0.515
10.85,-0.5
10.8528,-0.51
10.8556,-0.52
10.8583,-0.51
10.8611,-0.5
10.8639,-0.49
10.8667,-0.495
10.8694,-0.51
10.8722,-0.545
10.875,-0.585
10.8778,-0.635
10.8806,-0.68
10.8833,-0.745
10.8861,-0.795
10.8889,-0.815
10.8917,-0.83
10.8944,-0.85
10.8972,-0.835
10.9,-0.835
10.9028,-0.835
10.9056,-0.84
10.9083,-0.85
10.9111,-0.865
10.9139,-0.875
10.9167,-0.875
10.9194,-0.885
10.9222,-0.87
10.925,-0.86
10.9278,-0.865
10.9306,-0.85
10.9333,-0.83
10.9361,-0.845
10.9389,-0.85
10.9417,-0.85
10.9444,-0.86
10.9472,-0.88
10.95,-0.915
10.9528,-0.935
10.9556,-0.91
10.9583,-0.885
10.9611,-0.785
10.9639,-0.635
10.9667,-0.405
10.9694,-0.12
10.9722,0.24
10.975,0.61
10.9778,0.93
10.9806,1.18
10.9833,1.32
10.9861,1.37
10.9889,1.32
10.9917,1.165
10.9944,0.88
10.9972,0.455
11.0,-0.075
11.0028,-0.555
11.0056,-0.895
11.0083,-1.01
11.0111,-0.955
11.0139,-0.81
11.0167,-0.675
11.0194,-0.6
11.0222,-0.585
11.025,-0.63
11.0278,-0.675
11.0306,-0.74
11.0333,-0.795
11.0361,-0.83
11.0389,-0.845
11.0417,-0.85
11.0444,-0.85
11.0472,-0.845
11.05,-0.84
11.0528,-0.84
11.0556,-0.83
11.0583,-0.83
11.0611,-0.835
11.0639,-0.82
11.0667,-0.84
11.0694,-0.855
11.0722,-0.855
11.075,-0.875
11.0778,-0.88
11.0806,-0.885
11.0833,-0.89
11.0861,-0.9
11.0889,-0.86
11.0917,-0.87
11.0944,-0.865
11.0972,-0.87
11.1,-0.875
11.1028,-0.87
11.1056,-0.87
11.1083,-0.87
11.1111,-0.875
11.1139,-0.88
11.1167,-0.88
11.1194,-0.885
11.1222,-0.89
11.125,-0.875
11.1278,-0.865
11.1306,-0.855
11.1333,-0.86
11.1361,-0.87
11.1389,-0.875
11.1417,-0.865
11.1444,-0.875
11.1472,-0.88
11.15,-0.88
11.1528,-0.885
11.1556,-0.86
11.1583,-0.845
11.1611,-0.825
11.1639,-0.81
11.1667,-0.82
11.1694,-0.815
11.1722,-0.815
11.175,-0.84
11.1778,-0.82
11.1806,-0.83
11.1833,-0.845
11.1861,-0.81
11.1889,-0.795
11.1917,-0.775
11.1944,-0.76
11.1972,-0.75
11.2,-0.735
11.2028,-0.74
11.2056,-0.735
11.2083,-0.73
11.2111,-0.74
11.2139,-0.72
11.2167,-0.73
11.2194,-0.72
11.2222,-0.685
11.225,-0.665
11.2278,-0.665
11.2306,-0.625
11.2333,-0.63
11.2361,-0.615
11.2389,-0.585
11.2417,-0.575
11.2444,-0.58
11.2472,-0.565
11.25,-0.56
11.2528,-0.54
11.2556,-0.525
11.2583,-0.505
11.2611,-0.485
11.2639,-0.455
11.2667,-0.465
11.2694,-0.46
11.2722,-0.45
11.275,-0.45
11.2778,-0.46
11.2806,-0.43
11.2833,-0.42
11.2861,-0.42
11.2889,-0.39
11.2917,-0.375
11.2944,-0.355
11.2972,-0.33
11.3,-0.335
11.3028,-0.34
11.3056,-0.335
11.3083,-0.35
11.3111,-0.365
11.3139,-0.36
11.3167,-0.385
11.3194,-0.41
11.3222,-0.41
11.325,-0.42
11.3278,-0.435
11.3306,-0.455
11.3333,-0.48
11.3361,-0.505
11.3389,-0.535
11.3417,-0.57
11.3444,-0.59
11.3472,-0.605
11.35,-0.635
11.3528,-0.665
11.3556,-0.665
11.3583,-0.675
11.3611,-0.69
11.3639,-0.69
11.3667,-0.69
11.3694,-0.715
11.3722,-0.745
11.375,-0.745
11.3778,-0.755
11.3806,-0.75
11.3833,-0.79
11.3861,-0.775
11.3889,-0.76
11.3917,-0.75
11.3944,-0.755
11.3972,-0.745
11.4,-0.74
11.4028,-0.75
11.4056,-0.745
11.4083,-0.76
11.4111,-0.765
11.4139,-0.77
11.4167,-0.775
11.4194,-0.78
11.4222,-0.755
11.425,-0.76
11.4278,-0.74
11.4306,-0.72
11.4333,-0.725
11.4361,-0.75
11.4389,-0.74
11.4417,-0.75
11.4444,-0.75
11.4472,-0.75
11.45,-0.76
11.4528,-0.765
11.4556,-0.75
11.4583,-0.74
11.4611,-0.715
11.4639,-0.715
11.4667,-0.705
11.4694,-0.725
11.4722,-0.72
11.475,-0.73
11.4778,-0.74
11.4806,-0.745
11.4833,-0.75
11.4861,-0.745
11.4889,-0.745
11.4917,-0.725
11.4944,-0.715
11.4972,-0.71
11.5,-0.715
11.5028,-0.74
11.5056,-0.74
11.5083,-0.745
11.5111,-0.75
11.5139,-0.755
11.5167,-0.77
11.5194,-0.77
11.5222,-0.76
11.525,-0.755
11.5278,-0.75
11.5306,-0.735
11.5333,-0.745
11.5361,-0.76
11.5389,-0.765
11.5417,-0.77
11.5444,-0.79
11.5472,-0.775
11.55,-0.785
11.5528,-0.795
11.5556,-0.785
11.5583,-0.785
11.5611,-0.8
11.5639,-0.79
11.5667,-0.795
11.5694,-0.8
11.5722,-0.81
11.575,-0.815
11.5778,-0.82
11.5806,-0.825
11.5833,-0.83
11.5861,-0.825
11.5889,-0.82
11.5917,-0.81
11.5944,-0.805
11.5972,-0.8
11.6,-0.81
11.6028,-0.825
11.6056,-0.825
11.6083,-0.84
11.6111,-0.84
11.6139,-0.845
11.6167,-0.855
11.6194,-0.85
11.6222,-0.845
11.625,-0.835
11.6278,-0.82
11.6306,-0.81
11.6333,-0.805
11.6361,-0.815
11.6389,-0.83
11.6417,-0.845
11.6444,-0.855
11.6472,-0.865
11.65,-0.855
11.6528,-0.855
11.6556,-0.83
11.6583,-0.83
11.6611,-0.82
11.6639,-0.795
11.6667,-0.815
11.6694,-0.83
11.6722,-0.82
11.675,-0.83
11.6778,-0.845
11.6806,-0.825
11.6833,-0.825
11.6861,-0.83
11.6889,-0.8
11.6917,-0.805
11.6944,-0.775
11.6972,-0.745
11.7,-0.74
11.7028,-0.725
11.7056,-0.69
11.7083,-0.69
11.7111,-0.69
11.7139,-0.685
11.7167,-0.665
11.7194,-0.65
11.7222,-0.6
11.725,-0.555
11.7278,-0.515
11.7306,-0.46
11.7333,-0.455
11.7361,-0.465
11.7389,-0.485
11.7417,-0.495
11.7444,-0.51
11.7472,-0.515
11.75,-0.52
11.7528,-0.535
11.7556,-0.55
11.7583,-0.59
11.7611,-0.63
11.7639,-0.675
11.7667,-0.725
11.7694,-0.785
11.7722,-0.825
11.775,-0.85
11.7778,-0.87
11.7806,-0.855
11.7833,-0.86
11.7861,-0.845
11.7889,-0.82
11.7917,-0.835
11.7944,-0.825
11.7972,-0.825
11.8,-0.825
11.8028,-0.81
11.8056,-0.825
11.8083,-0.85
11.8111,-0.85
11.8139,-0.845
11.8167,-0.84
11.8194,-0.85
11.8222,-0.835
11.825,-0.82
11.8278,-0.82
11.8306,-0.815
11.8333,-0.815
11.8361,-0.82
11.8389,-0.82
11.8417,-0.835
11.8444,-0.83
11.8472,-0.835
11.85,-0.85
11.8528,-0.875
11.8556,-0.91
11.8583,-0.885
11.8611,-0.855
11.8639,-0.775
11.8667,-0.605
11.8694,-0.415
11.8722,-0.135
11.875,0.175
11.8778,0.555
11.8806,0.91
11.8833,1.185
11.8861,1.365
11.8889,1.42
11.8917,1.38
11.8944,1.205
11.8972,0.91
11.9,0.405
11.9028,-0.115
11.9056,-0.595
11.9083,-0.91
11.9111,-1.0
11.9139,-0.93
11.9167,-0.78
11.9194,-0.64
11.9222,-0.555
11.925,-0.545
11.9278,-0.57
11.9306,-0.625
11.9333,-0.705
11.9361,-0.755
11.9389,-0.77
11.9417,-0.79
11.9444,-0.8
11.9472,-0.79
11.95,-0.795
11.9528,-0.81
11.9556,-0.795
11.9583,-0.795
11.9611,-0.79
11.9639,-0.785
11.9667,-0.8
11.9694,-0.8
11.9722,-0.805
11.975,-0.815
11.9778,-0.825
11.9806,-0.82
11.9833,-0.84
11.9861,-0.82
11.9889,-0.815
11.9917,-0.805
11.9944,-0.79
11.9972,-0.78
12.0,-0.775
12.0028,-0.78
12.0056,-0.785
12.0083,-0.8
12.0111,-0.805
12.0139,-0.8
12.0167,-0.82
12.0194,-0.805
12.0222,-0.77
12.025,-0.78
12.0278,-0.77
12.0306,-0.765
12.0333,-0.77
12.0361,-0.77
12.0389,-0.77
12.0417,-0.775
12.0444,-0.785
12.0472,-0.775
12.05,-0.79
12.0528,-0.785
12.0556,-0.78
12.0583,-0.775
12.0611,-0.775
12.0639,-0.76
12.0667,-0.76
12.0694,-0.755
12.0722,-0.755
12.075,-0.77
12.0778,-0.75
12.0806,-0.735
12.0833,-0.735
12.0861,-0.71
12.0889,-0.7
12.0917,-0.675
12.0944,-0.675
12.0972,-0.67
12.1,-0.665
12.1028,-0.655
12.1056,-0.64
12.1083,-0.64
12.1111,-0.63
12.1139,-0.62
12.1167,-0.605
12.1194,-0.595
12.1222,-0.575
12.125,-0.565
12.1278,-0.545
12.1306,-0.515
12.1333,-0.5
12.1361,-0.475
12.1389,-0.465
12.1417,-0.46
12.1444,-0.44
12.1472,-0.445
12.15,-0.42
12.1528,-0.385
12.1556,-0.365
12.1583,-0.325
12.1611,-0.295
12.1639,-0.27
12.1667,-0.25
12.1694,-0.25
12.1722,-0.24
12.175,-0.245
12.1778,-0.235
12.1806,-0.225
12.1833,-0.23
12.1861,-0.225
12.1889,-0.205
12.1917,-0.195
12.1944,-0.165
12.1972,-0.18
12.2,-0.185
12.2028,-0.185
12.2056,-0.215
12.2083,-0.25
12.2111,-0.27
12.2139,-0.295
12.2167,-0.34
12.2194,-0.365
12.2222,-0.375
12.225,-0.385
12.2278,-0.42
12.2306,-0.44
12.2333,-0.47
12.2361,-0.495
12.2389,-0.525
12.2417,-0.565
12.2444,-0.585
12.2472,-0.61
12.25,-0.635
12.2528,-0.66
12.2556,-0.655
12.2583,-0.66
12.2611,-0.655
12.2639,-0.665
12.2667,-0.67
12.2694,-0.69
12.2722,-0.705
12.275,-0.715
12.2778,-0.715
12.2806,-0.72
12.2833,-0.735
12.2861,-0.73
12.2889,-0.73
12.2917,-0.735
12.2944,-0.735
12.2972,-0.72
12.3,-0.725
12.3028,-0.725
12.3056,-0.725
12.3083,-0.72
12.3111,-0.725
12.3139,-0.72
12.3167,-0.73
12.3194,-0.74
12.3222,-0.72
12.325,-0.715
12.3278,-0.7
12.3306,-0.695
12.3333,-0.7
12.3361,-0.68
12.3389,-0.685
12.3417,-0.69
12.3444,-0.675
12.3472,-0.685
12.35,-0.68
12.3528,-0.69
12.3556,-0.695
12.3583,-0.665
12.3611,-0.66
12.3639,-0.64
12.3667,-0.64
12.3694,-0.635
12.3722,-0.61
12.375,-0.555
12.3778,-0.445
12.3806,-0.315
12.3833,-0.165
12.3861,0.0
12.3889,0.205
12.3917,0.41
12.3944,0.61
12.3972,0.83
12.4,1.04
12.4028,1.265
12.4056,1.495
12.4083,1.68
12.4111,1.85
12.4139,2.0
12.4167,2.1
12.4194,2.16
12.4222,2.19
12.425,2.22
12.4278,2.205
12.4306,2.175
12.4333,2.115
12.4361,2.045
12.4389,1.945
12.4417,1.875
12.4444,1.845
12.4472,1.805
12.45,1.835
12.4528,1.865
12.4556,1.875
12.4583,1.86
12.4611,1.79
12.4639,1.695
12.4667,1.535
12.4694,1.36
12.4722,1.185
12.475,0.99
12.4778,0.715
12.4806,0.38
12.4833,0.015
12.4861,-0.34
12.4889,-0.61
12.4917,-0.785
12.4944,-0.85
12.4972,-0.85
12.5,-0.825
12.5028,-0.8
12.5056,-0.82
12.5083,-0.865
12.5111,-0.935
12.5139,-0.985
12.5167,-1.03
12.5194,-1.065
12.5222,-1.08
12.525,-1.085
12.5278,-1.105
12.5306,-1.1
12.5333,-1.12
12.5361,-1.14
12.5389,-1.17
12.5417,-1.185
12.5444,-1.2
12.5472,-1.205
12.55,-1.23
12.5528,-1.235
12.5556,-1.23
12.5583,-1.23
12.5611,-1.245
12.5639,-1.245
12.5667,-1.255
12.5694,-1.275
12.5722,-1.29
12.575,-1.31
12.5778,-1.33
12.5806,-1.345
12.5833,-1.345
12.5861,-1.345
12.5889,-1.345
12.5917,-1.33
12.5944,-1.325
12.5972,-1.305
12.6,-1.315
12.6028,-1.335
12.6056,-1.345
12.6083,-1.36
12.6111,-1.365
12.6139,-1.365
12.6167,-1.385
12.6194,-1.35
12.6222,-1.33
12.625,-1.315
12.6278,-1.32
12.6306,-1.335
12.6333,-1.38
12.6361,-1.42
12.6389,-1.46
12.6417,-1.495
12.6444,-1.525
12.6472,-1.55
12.65,-1.59
12.6528,-1.625
12.6556,-1.68
12.6583,-1.74
12.6611,-1.785
12.6639,-1.865
12.6667,-1.92
12.6694,-1.99
12.6722,-2.045
12.675,-2.09
12.6778,-2.11
12.6806,-2.13
12.6833,-2.17
12.6861,-2.17
12.6889,-2.18
12.6917,-2.18
12.6944,-2.195
12.6972,-2.185
12.7,-2.195
12.7028,-2.17
12.7056,-2.175
12.7083,-2.175
12.7111,-2.17
12.7139,-2.155
12.7167,-2.14
12.7194,-2.115
12.7222,-2.075
12.725,-2.035
12.7278,-1.99
12.7306,-1.93
12.7333,-1.89
12.7361,-1.855
12.7389,-1.815
12.7417,-1.77
12.7444,-1.74
12.7472,-1.675
12.75,-1.63
12.7528,-1.575
12.7556,-1.5
12.7583,-1.43
12.7611,-1.365
12.7639,-1.295
12.7667,-1.235
12.7694,-1.205
12.7722,-1.195
12.775,-1.155
12.7778,-1.125
12.7806,-1.105
12.7833,-1.09
12.7861,-1.085
12.7889,-1.055
12.7917,-1.04
12.7944,-1.01
12.7972,-1.01
12.8,-0.99
12.8028,-1.0
12.8056,-1.01
12.8083,-1.0
12.8111,-1.01
12.8139,-1.015
12.8167,-1.005
12.8194,-1.005
12.8222,-0.99
12.825,-0.98
12.8278,-0.985
12.8306,-0.98
12.8333,-0.97
12.8361,-0.965
12.8389,-0.965
12.8417,-0.98
12.8444,-0.97
12.8472,-0.98
12.85,-0.975
12.8528,-0.985
12.8556,-0.985
12.8583,-0.97
12.8611,-0.965
12.8639,-0.945
12.8667,-0.945
12.8694,-0.94
12.8722,-0.935
12.875,-0.96
12.8778,-0.95
12.8806,-0.96
12.8833,-0.96
12.8861,-0.96
12.8889,-0.945
12.8917,-0.935
12.8944,-0.935
12.8972,-0.94
12.9,-0.925
12.9028,-0.94
12.9056,-0.925
12.9083,-0.95
12.9111,-0.94
12.9139,-0.94
12.9167,-0.935
12.9194,-0.93
12.9222,-0.915
12.925,-0.905
12.9278,-0.9
12.9306,-0.895
12.9333,-0.875
12.9361,-0.89
12.9389,-0.895
12.9417,-0.915
12.9444,-0.895
12.9472,-0.93
12.95,-0.94
12.9528,-0.935
12.9556,-0.91
12.9583,-0.895
12.9611,-0.9
12.9639,-0.88
12.9667,-0.88
12.9694,-0.89
12.9722,-0.89
12.975,-0.905
12.9778,-0.895
12.9806,-0.915
12.9833,-0.91
12.9861,-0.9
12.9889,-0.905
12.9917,-0.9
12.9944,-0.88
12.9972,-0.885
13.0,-0.89
13.0028,-0.885
13.0056,-0.88
13.0083,-0.875
13.0111,-0.885
13.0139,-0.89
13.0167,-0.885
13.0194,-0.885
13.0222,-0.88
13.025,-0.86
13.0278,-0.865
13.0306,-0.85
13.0333,-0.85
13.0361,-0.845
13.0389,-0.86
13.0417,-0.865
13.0444,-0.87
13.0472,-0.87
13.05,-0.89
13.0528,-0.885
13.0556,-0.88
13.0583,-0.875
13.0611,-0.865
13.0639,-0.845
13.0667,-0.85
13.0694,-0.87
13.0722,-0.855
13.075,-0.86
13.0778,-0.87
13.0806,-0.87
13.0833,-0.865
13.0861,-0.865
13.0889,-0.87
13.0917,-0.85
13.0944,-0.84
13.0972,-0.83
13.1,-0.83
13.1028,-0.835
13.1056,-0.835
13.1083,-0.84
13.1111,-0.85
13.1139,-0.85
13.1167,-0.85
13.1194,-0.845
13.1222,-0.84
13.125,-0.84
13.1278,-0.845
13.1306,-0.84
13.1333,-0.83
13.1361,-0.835
13.1389,-0.835
13.1417,-0.85
13.1444,-0.845
13.1472,-0.86
13.15,-0.865
13.1528,-0.85
13.1556,-0.845
13.1583,-0.85
13.1611,-0.825
13.1639,-0.81
13.1667,-0.815
13.1694,-0.815
13.1722,-0.83
13.175,-0.835
13.1778,-0.835
13.1806,-0.845
13.1833,-0.845
13.1861,-0.845
13.1889,-0.84
13.1917,-0.85
13.1944,-0.81
13.1972,-0.795
13.2,-0.8
13.2028,-0.8
13.2056,-0.81
13.2083,-0.815
13.2111,-0.835
13.2139,-0.835
13.2167,-0.85
13.2194,-0.845
13.2222,-0.835
13.225,-0.83
13.2278,-0.81
13.2306,-0.815
13.2333,-0.81
13.2361,-0.805
13.2389,-0.805
13.2417,-0.805
13.2444,-0.815
13.2472,-0.83
13.25,-0.825
13.2528,-0.815
13.2556,-0.805
13.2583,-0.795
13.2611,-0.79
13.2639,-0.79
13.2667,-0.785
13.2694,-0.79
13.2722,-0.8
13.275,-0.82
13.2778,-0.815
13.2806,-0.83
13.2833,-0.82
13.2861,-0.82
13.2889,-0.83
13.2917,-0.805
13.2944,-0.805
13.2972,-0.78
13.3,-0.785
13.3028,-0.78
13.3056,-0.795
13.3083,-0.8
13.3111,-0.805
13.3139,-0.815
13.3167,-0.815
13.3194,-0.82
13.3222,-0.815
13.325,-0.8
13.3278,-0.79
13.3306,-0.795
13.3333,-0.785
13.3361,-0.795
13.3389,-0.795
13.3417,-0.805
13.3444,-0.795
13.3472,-0.81
13.35,-0.81
13.3528,-0.8
13.3556,-0.79
13.3583,-0.795
13.3611,-0.785
13.3639,-0.78
13.3667,-0.78
13.3694,-0.78
13.3722,-0.78
13.375,-0.785
13.3778,-0.8
13.3806,-0.81
13.3833,-0.81
13.3861,-0.82
13.3889,-0.805
13.3917,-0.82
13.3944,-0.79
13.3972,-0.77
13.4,-0.765
13.4028,-0.775
13.4056,-0.79
13.4083,-0.785
13.4111,-0.805
13.4139,-0.8
13.4167,-0.795
13.4194,-0.795
13.4222,-0.785
13.425,-0.775
13.4278,-0.775
13.4306,-0.76
13.4333,-0.765
13.4361,-0.775
13.4389,-0.78
13.4417,-0.785
13.4444,-0.805
13.4472,-0.825
13.45,-0.815
13.4528,-0.795
13.4556,-0.78
13.4583,-0.785
13.4611,-0.78
13.4639,-0.765
13.4667,-0.77
13.4694,-0.785
13.4722,-0.79
13.475,-0.785
13.4778,-0.795
13.4806,-0.79
13.4833,-0.785
13.4861,-0.785
13.4889,-0.785
13.4917,-0.775
13.4944,-0.775
13.4972,-0.755
13.5,-0.765
13.5028,-0.76
13.5056,-0.765
13.5083,-0.77
13.5111,-0.77
13.5139,-0.79
13.5167,-0.795
13.5194,-0.795
13.5222,-0.79
13.525,-0.79
13.5278,-0.775
13.5306,-0.765
13.5333,-0.74
13.5361,-0.725
13.5389,-0.715
13.5417,-0.71
13.5444,-0.71
13.5472,-0.695
13.55,-0.675
13.5528,-0.66
13.5556,-0.66
13.5583,-0.625
13.5611,-0.61
13.5639,-0.585
13.5667,-0.545
13.5694,-0.505
13.5722,-0.46
13.575,-0.44
13.5778,-0.42
13.5806,-0.43
13.5833,-0.445
13.5861,-0.445
13.5889,-0.455
13.5917,-0.445
13.5944,-0.435
13.5972,-0.435
13.6,-0.45
13.6028,-0.505
13.6056,-0.54
13.6083,-0.625
13.6111,-0.675
13.6139,-0.72
13.6167,-0.77
13.6194,-0.79
13.6222,-0.79
13.625,-0.785
13.6278,-0.765
13.6306,-0.785
13.6333,-0.765
13.6361,-0.765
13.6389,-0.79
13.6417,-0.785
13.6444,-0.8
13.6472,-0.79
13.65,-0.805
13.6528,-0.81
13.6556,-0.8
13.6583,-0.775
13.6611,-0.765
13.6639,-0.755
13.6667,-0.74
13.6694,-0.77
13.6722,-0.775
13.675,-0.775
13.6778,-0.81
13.6806,-0.845
13.6833,-0.87
13.6861,-0.86
13.6889,-0.825
13.6917,-0.72
13.6944,-0.525
13.6972,-0.285
13.7,0.045
13.7028,0.405
13.7056,0.775
13.7083,1.075
13.7111,1.3
13.7139,1.415
13.7167,1.41
13.7194,1.29
13.7222,1.065
13.725,0.69
13.7278,0.18
13.7306,-0.31
13.7333,-0.71
13.7361,-0.895
13.7389,-0.895
13.7417,-0.775
13.7444,-0.655
13.7472,-0.545
13.75,-0.52
13.7528,-0.55
13.7556,-0.605
13.7583,-0.66
13.7611,-0.705
13.7639,-0.73
13.7667,-0.75
13.7694,-0.76
13.7722,-0.755
13.775,-0.75
13.7778,-0.76
13.7806,-0.76
13.7833,-0.775
13.7861,-0.785
13.7889,-0.785
13.7917,-0.765
13.7944,-0.765
13.7972,-0.75
13.8,-0.74
13.8028,-0.75
13.8056,-0.75
13.8083,-0.765
13.8111,-0.785
13.8139,-0.79
13.8167,-0.795
13.8194,-0.795
13.8222,-0.795
13.825,-0.79
13.8278,-0.765
13.8306,-0.765
13.8333,-0.75
13.8361,-0.765
13.8389,-0.76
13.8417,-0.76
13.8444,-0.775
13.8472,-0.77
13.85,-0.775
13.8528,-0.785
13.8556,-0.77
13.8583,-0.77
13.8611,-0.775
13.8639,-0.78
13.8667,-0.755
13.8694,-0.775
13.8722,-0.77
13.875,-0.77
13.8778,-0.765
13.8806,-0.78
13.8833,-0.77
13.8861,-0.765
13.8889,-0.74
13.8917,-0.735
13.8944,-0.725
13.8972,-0.71
13.9,-0.705
13.9028,-0.705
13.9056,-0.69
13.9083,-0.71
13.9111,-0.705
13.9139,-0.7
13.9167,-0.705
13.9194,-0.705
13.9222,-0.675
13.925,-0.675
13.9278,-0.65
13.9306,-0.645
13.9333,-0.63
13.9361,-0.62
13.9389,-0.615
13.9417,-0.605
13.9444,-0.6
13.9472,-0.585
13.95,-0.6
13.9528,-0.57
13.9556,-0.55
13.9583,-0.535
13.9611,-0.515
13.9639,-0.505
13.9667,-0.48
13.9694,-0.465
13.9722,-0.47
13.975,-0.465
13.9778,-0.45
13.9806,-0.44
13.9833,-0.44
13.9861,-0.415
13.9889,-0.41
13.9917,-0.38
13.9944,-0.37
13.9972,-0.37
14.0,-0.33
14.0028,-0.305
14.0056,-0.305
14.0083,-0.295
14.0111,-0.295
14.0139,-0.285
14.0167,-0.275
14.0194,-0.27
14.0222,-0.24
14.025,-0.24
14.0278,-0.245
14.0306,-0.24
14.0333,-0.23
14.0361,-0.23
14.0389,-0.24
14.0417,-0.265
14.0444,-0.285
14.0472,-0.31
14.05,-0.335
14.0528,-0.345
14.0556,-0.36
14.0583,-0.37
14.0611,-0.385
14.0639,-0.395
14.0667,-0.41
14.0694,-0.43
14.0722,-0.455
14.075,-0.48
14.0778,-0.51
14.0806,-0.53
14.0833,-0.555
14.0861,-0.57
14.0889,-0.57
14.0917,-0.575
14.0944,-0.575
14.0972,-0.565
14.1,-0.575
14.1028,-0.605
14.1056,-0.615
14.1083,-0.63
14.1111,-0.625
14.1139,-0.65
14.1167,-0.665
14.1194,-0.645
14.1222,-0.63
14.125,-0.63
14.1278,-0.625
14.1306,-0.61
14.1333,-0.595
14.1361,-0.6
14.1389,-0.59
14.1417,-0.595
14.1444,-0.6
14.1472,-0.615
14.15,-0.605
14.1528,-0.605
14.1556,-0.595
14.1583,-0.6
14.1611,-0.58
14.1639,-0.565
14.1667,-0.55
14.1694,-0.56
14.1722,-0.555
14.175,-0.575
14.1778,-0.585
14.1806,-0.59
14.1833,-0.59
14.1861,-0.585
14.1889,-0.585
14.1917,-0.56
14.1944,-0.525
14.1972,-0.46
14.2,-0.355
14.2028,-0.215
14.2056,-0.08
14.2083,0.06
14.2111,0.225
14.2139,0.39
14.2167,0.585
14.2194,0.805
14.2222,1.05
14.225,1.305
14.2278,1.56
14.2306,1.785
14.2333,1.975
14.2361,2.135
14.2389,2.24
14.2417,2.32
14.2444,2.355
14.2472,2.365
14.25,2.355
14.2528,2.32
14.2556,2.25
14.2583,2.16
14.2611,2.075
14.2639,2.01
14.2667,1.96
14.2694,1.95
14.2722,1.97
14.275,1.985
14.2778,1.985
14.2806,1.94
14.2833,1.865
14.2861,1.765
14.2889,1.595
14.2917,1.425
14.2944,1.245
14.2972,1.015
14.3,0.735
14.3028,0.375
14.3056,-0.02
14.3083,-0.37
14.3111,-0.645
14.3139,-0.785
14.3167,-0.84
14.3194,-0.815
14.3222,-0.795
14.325,-0.78
14.3278,-0.805
14.3306,-0.845
14.3333,-0.88
14.3361,-0.93
14.3389,-0.98
14.3417,-1.015
14.3444,-1.04
14.3472,-1.065
14.35,-1.08
14.3528,-1.095
14.3556,-1.11
14.3583,-1.11
14.3611,-1.11
14.3639,-1.115
14.3667,-1.13
14.3694,-1.145
14.3722,-1.15
14.375,-1.175
14.3778,-1.195
14.3806,-1.21
14.3833,-1.24
14.3861,-1.25
14.3889,-1.245
14.3917,-1.255
14.3944,-1.265
14.3972,-1.26
14.4,-1.27
14.4028,-1.28
14.4056,-1.305
14.4083,-1.335
14.4111,-1.35
14.4139,-1.38
14.4167,-1.395
14.4194,-1.415
14.4222,-1.415
14.425,-1.425
14.4278,-1.43
14.4306,-1.41
14.4333,-1.4
14.4361,-1.41
14.4389,-1.42
14.4417,-1.45
14.4444,-1.46
14.4472,-1.47
14.45,-1.485
14.4528,-1.48
14.4556,-1.475
14.4583,-1.47
14.4611,-1.465
14.4639,-1.46
14.4667,-1.485
14.4694,-1.515
14.4722,-1.545
14.475,-1.61
14.4778,-1.65
14.4806,-1.71
14.4833,-1.74
14.4861,-1.765
14.4889,-1.815
14.4917,-1.86
14.4944,-1.885
14.4972,-1.935
14.5,-2.0
14.5028,-2.03
14.5056,-2.08
14.5083,-2.12
14.5111,-2.13
14.5139,-2.145
14.5167,-2.145
14.5194,-2.145
14.5222,-2.13
14.525,-2.11
14.5278,-2.075
14.5306,-2.075
14.5333,-2.025
14.5361,-2.0
14.5389,-1.975
14.5417,-1.935
14.5444,-1.9
14.5472,-1.855
14.55,-1.81
14.5528,-1.74
14.5556,-1.695
14.5583,-1.62
14.5611,-1.55
14.5639,-1.49
14.5667,-1.43
14.5694,-1.37
14.5722,-1.32
14.575,-1.27
14.5778,-1.225
14.5806,-1.18
14.5833,-1.145
14.5861,-1.095
14.5889,-1.06
14.5917,-1.03
14.5944,-1.005
14.5972,-0.985
14.6,-0.965
14.6028,-0.945
14.6056,-0.945
14.6083,-0.955
14.6111,-0.955
14.6139,-0.965
14.6167,-0.96
14.6194,-0.965
14.6222,-0.955
14.625,-0.945
14.6278,-0.935
14.6306,-0.925
14.6333,-0.915
14.6361,-0.935
14.6389,-0.93
14.6417,-0.95
14.6444,-0.93
14.6472,-0.95
14.65,-0.945
14.6528,-0.94
14.6556,-0.94
14.6583,-0.94
14.6611,-0.93
14.6639,-0.9
14.6667,-0.905
14.6694,-0.91
14.6722,-0.905
14.675,-0.915
14.6778,-0.925
14.6806,-0.915
14.6833,-0.92
14.6861,-0.92
14.6889,-0.93
14.6917,-0.895
14.6944,-0.88
14.6972,-0.875
14.7,-0.875
14.7028,-0.885
14.7056,-0.875
14.7083,-0.885
14.7111,-0.91
14.7139,-0.905
14.7167,-0.895
14.7194,-0.905
14.7222,-0.895
14.725,-0.89
14.7278,-0.87
14.7306,-0.87
14.7333,-0.855
14.7361,-0.85
14.7389,-0.85
14.7417,-0.86
14.7444,-0.875
14.7472,-0.875
14.75,-0.87
14.7528,-0.885
14.7556,-0.875
14.7583,-0.875
14.7611,-0.855
14.7639,-0.84
14.7667,-0.835
14.7694,-0.835
14.7722,-0.855
14.775,-0.87
14.7778,-0.85
14.7806,-0.86
14.7833,-0.87
14.7861,-0.865
14.7889,-0.855
14.7917,-0.855
14.7944,-0.85
14.7972,-0.82
14.8,-0.82
14.8028,-0.825
14.8056,-0.83
14.8083,-0.835
14.8111,-0.84
14.8139,-0.845
14.8167,-0.84
14.8194,-0.85
14.8222,-0.84
14.825,-0.825
14.8278,-0.825
14.8306,-0.825
14.8333,-0.82
14.8361,-0.82
14.8389,-0.825
14.8417,-0.825
14.8444,-0.83
14.8472,-0.845
14.85,-0.85
14.8528,-0.845
14.8556,-0.835
14.8583,-0.835
14.8611,-0.82
14.8639,-0.795
14.8667,-0.785
14.8694,-0.815
14.8722,-0.805
14.875,-0.82
14.8778,-0.835
14.8806,-0.845
14.8833,-0.83
14.8861,-0.83
14.8889,-0.82
14.8917,-0.815
14.8944,-0.81
14.8972,-0.815
14.9,-0.8
14.9028,-0.81
14.9056,-0.805
14.9083,-0.81
14.9111,-0.83
14.9139,-0.82
14.9167,-0.82
14.9194,-0.83
14.9222,-0.825
14.925,-0.81
14.9278,-0.805
14.9306,-0.805
14.9333,-0.79
14.9361,-0.795
14.9389,-0.79
14.9417,-0.795
14.9444,-0.8
14.9472,-0.805
14.95,-0.81
14.9528,-0.815
14.9556,-0.82
14.9583,-0.81
14.9611,-0.795
14.9639,-0.785
14.9667,-0.77
14.9694,-0.775
14.9722,-0.805
14.975,-0.8
14.9778,-0.795
14.9806,-0.795
14.9833,-0.805
14.9861,-0.805
14.9889,-0.795
14.9917,-0.79
14.9944,-0.775
14.9972,-0.775
15.0,-0.765
15.0028,-0.785
15.0056,-0.79
15.0083,-0.805
15.0111,-0.79
15.0139,-0.79
15.0167,-0.795
15.0194,-0.79
15.0222,-0.79
15.025,-0.79
15.0278,-0.77
15.0306,-0.745
15.0333,-0.745
15.0361,-0.745
15.0389,-0.745
15.0417,-0.75
15.0444,-0.765
15.0472,-0.77
15.05,-0.765
15.0528,-0.775
15.0556,-0.78
15.0583,-0.765
15.0611,-0.76
15.0639,-0.755
15.0667,-0.735
15.0694,-0.74
15.0722,-0.755
15.075,-0.76
15.0778,-0.76
15.0806,-0.77
15.0833,-0.775
15.0861,-0.77
15.0889,-0.765
15.0917,-0.765
15.0944,-0.745
15.0972,-0.73
15.1,-0.72
15.1028,-0.73
15.1056,-0.755
15.1083,-0.755
15.1111,-0.765
15.1139,-0.77
15.1167,-0.765
15.1194,-0.77
15.1222,-0.765
15.125,-0.77
15.1278,-0.74
15.1306,-0.735
15.1333,-0.735
15.1361,-0.74
15.1389,-0.75
15.1417,-0.755
15.1444,-0.76
15.1472,-0.77
15.15,-0.765
15.1528,-0.765
15.1556,-0.75
15.1583,-0.77
15.1611,-0.74
15.1639,-0.72
15.1667,-0.72
15.1694,-0.735
15.1722,-0.75
15.175,-0.745
15.1778,-0.755
15.1806,-0.755
15.1833,-0.75
15.1861,-0.75
15.1889,-0.76
15.1917,-0.76
15.1944,-0.745
15.1972,-0.745
15.2,-0.735
15.2028,-0.725
15.2056,-0.71
15.2083,-0.725
15.2111,-0.725
15.2139,-0.73
15.2167,-0.73
15.2194,-0.73
15.2222,-0.735
15.225,-0.725
15.2278,-0.73
15.2306,-0.725
15.2333,-0.71
15.2361,-0.725
15.2389,-0.725
15.2417,-0.73
15.2444,-0.745
15.2472,-0.745
15.25,-0.745
15.2528,-0.745
15.2556,-0.745
15.2583,-0.74
15.2611,-0.735
15.2639,-0.725
15.2667,-0.725
15.2694,-0.735
15.2722,-0.725
15.275,-0.73
15.2778,-0.74
15.2806,-0.745
15.2833,-0.74
15.2861,-0.755
15.2889,-0.76
15.2917,-0.745
15.2944,-0.72
15.2972,-0.72
15.3,-0.715
15.3028,-0.73
15.3056,-0.715
15.3083,-0.71
15.3111,-0.715
15.3139,-0.72
15.3167,-0.73
15.3194,-0.73
15.3222,-0.73
15.325,-0.735
15.3278,-0.72
15.3306,-0.7
15.3333,-0.7
15.3361,-0.71
15.3389,-0.705
15.3417,-0.715
15.3444,-0.725
15.3472,-0.72
15.35,-0.73
15.3528,-0.725
15.3556,-0.71
15.3583,-0.69
15.3611,-0.675
15.3639,-0.675
15.3667,-0.645
15.3694,-0.635
15.3722,-0.63
15.375,-0.61
15.3778,-0.605
15.3806,-0.585
15.3833,-0.59
15.3861,-0.58
15.3889,-0.56
15.3917,-0.53
15.3944,-0.5
15.3972,-0.465
15.4,-0.425
15.4028,-0.415
15.4056,-0.395
15.4083,-0.41
15.4111,-0.455
15.4139,-0.485
15.4167,-0.52
15.4194,-0.56
15.4222,-0.58
15.425,-0.57
15.4278,-0.595
15.4306,-0.59
15.4333,-0.6
15.4361,-0.62
15.4389,-0.65
15.4417,-0.68
15.4444,-0.7
15.4472,-0.73
15.45,-0.72
15.4528,-0.725
15.4556,-0.73
15.4583,-0.72
15.4611,-0.715
15.4639,-0.705
15.4667,-0.695
15.4694,-0.695
15.4722,-0.715
15.475,-0.695
15.4778,-0.705
15.4806,-0.705
15.4833,-0.7
15.4861,-0.71
15.4889,-0.7
15.4917,-0.695
15.4944,-0.68
15.4972,-0.69
15.5,-0.68
15.5028,-0.695
15.5056,-0.69
15.5083,-0.68
15.5111,-0.71
15.5139,-0.72
15.5167,-0.745
15.5194,-0.785
15.5222,-0.76
15.525,-0.74
15.5278,-0.66
15.5306,-0.52
15.5333,-0.36
15.5361,-0.125
15.5389,0.165
15.5417,0.48
15.5444,0.815
15.5472,1.13
15.55,1.355
15.5528,1.495
15.5556,1.52
15.5583,1.465
15.5611,1.31
15.5639,1.005
15.5667,0.6
15.5694,0.085
15.5722,-0.37
15.575,-0.685
15.5778,-0.815
15.5806,-0.78
15.5833,-0.63
15.5861,-0.48
15.5889,-0.41
15.5917,-0.4
15.5944,-0.45
15.5972,-0.51
15.6,-0.57
15.6028,-0.63
15.6056,-0.655
15.6083,-0.66
15.6111,-0.665
15.6139,-0.67
15.6167,-0.67
15.6194,-0.685
15.6222,-0.685
15.625,-0.675
15.6278,-0.66
15.6306,-0.665
15.6333,-0.665
15.6361,-0.665
15.6389,-0.68
15.6417,-0.675
15.6444,-0.685
15.6472,-0.695
15.65,-0.695
15.6528,-0.705
15.6556,-0.695
15.6583,-0.695
15.6611,-0.685
15.6639,-0.68
15.6667,-0.67
15.6694,-0.69
15.6722,-0.685
15.675,-0.69
15.6778,-0.685
15.6806,-0.68
15.6833,-0.695
15.6861,-0.715
15.6889,-0.7
15.6917,-0.68
15.6944,-0.69
15.6972,-0.665
15.7,-0.655
15.7028,-0.655
15.7056,-0.665
15.7083,-0.67
15.7111,-0.685
15.7139,-0.685
15.7167,-0.695
15.7194,-0.695
15.7222,-0.695
15.725,-0.685
15.7278,-0.695
15.7306,-0.67
15.7333,-0.645
15.7361,-0.645
15.7389,-0.645
15.7417,-0.65
15.7444,-0.645
15.7472,-0.64
15.75,-0.655
15.7528,-0.66
15.7556,-0.64
15.7583,-0.625
15.7611,-0.615
15.7639,-0.61
15.7667,-0.62
15.7694,-0.6
15.7722,-0.6
15.775,-0.595
15.7778,-0.585
15.7806,-0.595
15.7833,-0.57
15.7861,-0.57
15.7889,-0.545
15.7917,-0.525
15.7944,-0.525
15.7972,-0.5
15.8,-0.465
15.8028,-0.46
15.8056,-0.46
15.8083,-0.47
15.8111,-0.46
15.8139,-0.46
15.8167,-0.42
15.8194,-0.41
15.8222,-0.39
15.825,-0.35
15.8278,-0.335
15.8306,-0.32
15.8333,-0.305
15.8361,-0.29
15.8389,-0.285
15.8417,-0.265
15.8444,-0.29
15.8472,-0.265
15.85,-0.26
15.8528,-0.255
15.8556,-0.245
15.8583,-0.23
15.8611,-0.2
15.8639,-0.17
15.8667,-0.15
15.8694,-0.135
15.8722,-0.14
15.875,-0.14
15.8778,-0.16
15.8806,-0.175
15.8833,-0.17
15.8861,-0.19
15.8889,-0.195
15.8917,-0.2
15.8944,-0.205
15.8972,-0.21
15.9,-0.23
15.9028,-0.25
15.9056,-0.275
15.9083,-0.3
15.9111,-0.32
15.9139,-0.34
15.9167,-0.375
15.9194,-0.39
15.9222,-0.41
15.925,-0.415
15.9278,-0.435
15.9306,-0.455
15.9333,-0.475
15.9361,-0.49
15.9389,-0.51
15.9417,-0.53
15.9444,-0.545
15.9472,-0.565
15.95,-0.565
15.9528,-0.555
15.9556,-0.56
15.9583,-0.55
15.9611,-0.545
15.9639,-0.555
15.9667,-0.535
15.9694,-0.555
15.9722,-0.545
15.975,-0.565
15.9778,-0.565
15.9806,-0.565
15.9833,-0.59
15.9861,-0.58
15.9889,-0.585
15.9917,-0.575
15.9944,-0.555
15.9972,-0.545
16.0,-0.535
16.0028,-0.545
16.0056,-0.54
16.0083,-0.53
16.0111,-0.56
16.0139,-0.57
16.0167,-0.56
16.0194,-0.56
16.0222,-0.565
16.025,-0.55
16.0278,-0.545
16.0306,-0.545
16.0333,-0.525
16.0361,-0.525
16.0389,-0.535
16.0417,-0.53
16.0444,-0.55
16.0472,-0.535
16.05,-0.545
16.0528,-0.555
16.0556,-0.54
16.0583,-0.555
16.0611,-0.55
16.0639,-0.555
16.0667,-0.545
16.0694,-0.54
16.0722,-0.55
16.075,-0.56
16.0778,-0.575
16.0806,-0.585
16.0833,-0.58
16.0861,-0.595
16.0889,-0.59
16.0917,-0.59
16.0944,-0.575
16.0972,-0.565
16.1,-0.565
16.1028,-0.575
16.1056,-0.575
16.1083,-0.6
16.1111,-0.61
16.1139,-0.615
16.1167,-0.62
16.1194,-0.625
16.1222,-0.64
16.125,-0.635
16.1278,-0.625
16.1306,-0.625
16.1333,-0.63
16.1361,-0.62
16.1389,-0.625
16.1417,-0.625
16.1444,-0.645
16.1472,-0.65
16.15,-0.665
16.1528,-0.675
16.1556,-0.66
16.1583,-0.655
16.1611,-0.655
16.1639,-0.66
16.1667,-0.635
16.1694,-0.66
16.1722,-0.66
16.175,-0.665
16.1778,-0.665
16.1806,-0.665
16.1833,-0.665
16.1861,-0.67
16.1889,-0.655
16.1917,-0.65
16.1944,-0.64
16.1972,-0.655
16.2,-0.625
16.2028,-0.64
16.2056,-0.645
16.2083,-0.655
16.2111,-0.67
16.2139,-0.685
16.2167,-0.665
16.2194,-0.67
16.2222,-0.64
16.225,-0.61
16.2278,-0.595
16.2306,-0.565
16.2333,-0.545
16.2361,-0.54
16.2389,-0.525
16.2417,-0.52
16.2444,-0.52
16.2472,-0.51
16.25,-0.485
16.2528,-0.47
16.2556,-0.46
16.2583,-0.46
16.2611,-0.45
16.2639,-0.475
16.2667,-0.495
16.2694,-0.54
16.2722,-0.575
16.275,-0.6
16.2778,-0.615
16.2806,-0.605
16.2833,-0.615
16.2861,-0.63
16.2889,-0.65
16.2917,-0.665
16.2944,-0.675
16.2972,-0.68
16.3,-0.68
16.3028,-0.69
16.3056,-0.69
16.3083,-0.695
16.3111,-0.72
16.3139,-0.715
16.3167,-0.715
16.3194,-0.72
16.3222,-0.73
16.325,-0.715
16.3278,-0.705
16.3306,-0.705
16.3333,-0.695
16.3361,-0.7
16.3389,-0.69
16.3417,-0.68
16.3444,-0.71
16.3472,-0.715
16.35,-0.73
16.3528,-0.73
16.3556,-0.715
16.3583,-0.715
16.3611,-0.705
16.3639,-0.705
16.3667,-0.69
16.3694,-0.675
16.3722,-0.685
16.375,-0.7
16.3778,-0.735
16.3806,-0.78
16.3833,-0.78
16.3861,-0.73
16.3889,-0.66
16.3917,-0.5
16.3944,-0.27
16.3972,0.005
16.4,0.36
16.4028,0.73
16.4056,1.085
16.4083,1.325
16.4111,1.46
16.4139,1.505
16.4167,1.425
16.4194,1.215
16.4222,0.85
16.425,0.35
16.4278,-0.17
16.4306,-0.595
16.4333,-0.8
16.4361,-0.83
16.4389,-0.72
16.4417,-0.57
16.4444,-0.47
16.4472,-0.45
16.45,-0.485
16.4528,-0.55
16.4556,-0.615
16.4583,-0.66
16.4611,-0.67
16.4639,-0.685
16.4667,-0.675
16.4694,-0.66
16.4722,-0.66
16.475,-0.68
16.4778,-0.69
16.4806,-0.705
16.4833,-0.715
16.4861,-0.73
16.4889,-0.735
16.4917,-0.72
16.4944,-0.715
16.4972,-0.705
16.5,-0.695
16.5028,-0.715
16.5056,-0.705
16.5083,-0.71
16.5111,-0.72
16.5139,-0.745
16.5167,-0.745
16.5194,-0.745
16.5222,-0.735
16.525,-0.725
16.5278,-0.72
16.5306,-0.725
16.5333,-0.695
16.5361,-0.695
16.5389,-0.695
16.5417,-0.71
16.5444,-0.725
16.5472,-0.72
16.55,-0.72
16.5528,-0.72
16.5556,-0.725
16.5583,-0.71
16.5611,-0.71
16.5639,-0.705
16.5667,-0.695
16.5694,-0.695
16.5722,-0.705
16.575,-0.72
16.5778,-0.725
16.5806,-0.725
16.5833,-0.725
16.5861,-0.715
16.5889,-0.7
16.5917,-0.69
16.5944,-0.685
16.5972,-0.695
16.6,-0.68
16.6028,-0.66
16.6056,-0.65
16.6083,-0.665
16.6111,-0.655
16.6139,-0.66
16.6167,-0.65
16.6194,-0.655
16.6222,-0.645
16.625,-0.62
16.6278,-0.605
16.6306,-0.595
16.6333,-0.565
16.6361,-0.55
16.6389,-0.545
16.6417,-0.54
16.6444,-0.535
16.6472,-0.525
16.65,-0.505
16.6528,-0.48
16.6556,-0.485
16.6583,-0.46
16.6611,-0.44
16.6639,-0.425
16.6667,-0.38
16.6694,-0.365
16.6722,-0.345
16.675,-0.335
16.6778,-0.325
16.6806,-0.32
16.6833,-0.31
16.6861,-0.31
16.6889,-0.285
16.6917,-0.275
16.6944,-0.25
16.6972,-0.235
16.7,-0.21
16.7028,-0.21
16.7056,-0.21
16.7083,-0.205
16.7111,-0.215
16.7139,-0.21
16.7167,-0.22
16.7194,-0.21
16.7222,-0.21
16.725,-0.22
16.7278,-0.235
16.7306,-0.245
16.7333,-0.26
16.7361,-0.28
16.7389,-0.31
16.7417,-0.33
16.7444,-0.37
16.7472,-0.395
16.75,-0.445
16.7528,-0.46
16.7556,-0.49
16.7583,-0.5
16.7611,-0.52
16.7639,-0.53
16.7667,-0.565
16.7694,-0.59
16.7722,-0.61
16.775,-0.63
16.7778,-0.665
16.7806,-0.695
16.7833,-0.68
16.7861,-0.71
16.7889,-0.72
16.7917,-0.72
16.7944,-0.74
16.7972,-0.725
16.8,-0.72
16.8028,-0.72
16.8056,-0.72
16.8083,-0.72
16.8111,-0.75
16.8139,-0.77
16.8167,-0.755
16.8194,-0.765
16.8222,-0.77
16.825,-0.75
16.8278,-0.74
16.8306,-0.75
16.8333,-0.735
16.8361,-0.75
16.8389,-0.75
16.8417,-0.735
16.8444,-0.735
16.8472,-0.75
16.85,-0.75
16.8528,-0.76
16.8556,-0.735
16.8583,-0.73
16.8611,-0.735
16.8639,-0.715
16.8667,-0.715
16.8694,-0.695
16.8722,-0.705
16.875,-0.705
16.8778,-0.72
16.8806,-0.725
16.8833,-0.745
16.8861,-0.735
16.8889,-0.72
16.8917,-0.72
16.8944,-0.7
16.8972,-0.7
16.9,-0.68
16.9028,-0.68
16.9056,-0.68
16.9083,-0.68
16.9111,-0.7
16.9139,-0.695
16.9167,-0.71
16.9194,-0.71
16.9222,-0.72
16.925,-0.71
16.9278,-0.69
16.9306,-0.695
16.9333,-0.69
16.9361,-0.7
16.9389,-0.715
16.9417,-0.71
16.9444,-0.715
16.9472,-0.715
16.95,-0.73
16.9528,-0.73
16.9556,-0.735
16.9583,-0.73
16.9611,-0.715
16.9639,-0.7
16.9667,-0.7
16.9694,-0.73
16.9722,-0.715
16.975,-0.72
16.9778,-0.73
16.9806,-0.735
16.9833,-0.745
16.9861,-0.76
16.9889,-0.77
16.9917,-0.755
16.9944,-0.75
16.9972,-0.735
17.0,-0.725
17.0028,-0.72
17.0056,-0.72
17.0083,-0.72
17.0111,-0.735
17.0139,-0.735
17.0167,-0.755
17.0194,-0.755
17.0222,-0.755
17.025,-0.75
17.0278,-0.755
17.0306,-0.74
17.0333,-0.73
17.0361,-0.715
17.0389,-0.74
17.0417,-0.735
17.0444,-0.765
17.0472,-0.76
17.05,-0.775
17.0528,-0.77
17.0556,-0.775
17.0583,-0.76
17.0611,-0.745
17.0639,-0.75
17.0667,-0.735
17.0694,-0.715
17.0722,-0.735
17.075,-0.715
17.0778,-0.715
17.0806,-0.695
17.0833,-0.705
17.0861,-0.675
17.0889,-0.65
17.0917,-0.62
17.0944,-0.595
17.0972,-0.57
17.1,-0.57
17.1028,-0.54
17.1056,-0.55
17.1083,-0.555
17.1111,-0.57
17.1139,-0.6
17.1167,-0.635
17.1194,-0.65
17.1222,-0.64
17.125,-0.655
17.1278,-0.655
17.1306,-0.655
17.1333,-0.665
17.1361,-0.66
17.1389,-0.7
17.1417,-0.72
17.1444,-0.73
17.1472,-0.75
17.15,-0.755
17.1528,-0.77
17.1556,-0.75
17.1583,-0.75
17.1611,-0.73
17.1639,-0.725
17.1667,-0.725
17.1694,-0.72
17.1722,-0.72
17.175,-0.735
17.1778,-0.745
17.1806,-0.76
17.1833,-0.74
17.1861,-0.76
17.1889,-0.745
17.1917,-0.745
17.1944,-0.73
17.1972,-0.73
17.2,-0.705
17.2028,-0.71
17.2056,-0.695
17.2083,-0.71
17.2111,-0.73
17.2139,-0.755
17.2167,-0.79
17.2194,-0.82
17.2222,-0.815
17.225,-0.765
17.2278,-0.64
17.2306,-0.44
17.2333,-0.175
17.2361,0.185
17.2389,0.57
17.2417,0.96
17.2444,1.25
17.2472,1.455
17.25,1.505
17.2528,1.435
17.2556,1.225
17.2583,0.855
17.2611,0.37
17.2639,-0.17
17.2667,-0.6
17.2694,-0.82
17.2722,-0.84
17.275,-0.745
17.2778,-0.6
17.2806,-0.5
17.2833,-0.475
17.2861,-0.5
17.2889,-0.545
17.2917,-0.615
17.2944,-0.65
17.2972,-0.67
17.3,-0.68
17.3028,-0.69
17.3056,-0.685
17.3083,-0.68
17.3111,-0.695
17.3139,-0.705
17.3167,-0.7
17.3194,-0.715
17.3222,-0.715
17.325,-0.735
17.3278,-0.72
17.3306,-0.7
17.3333,-0.7
17.3361,-0.685
17.3389,-0.705
17.3417,-0.7
17.3444,-0.695
17.3472,-0.715
17.35,-0.73
17.3528,-0.73
17.3556,-0.725
17.3583,-0.72
17.3611,-0.71
17.3639,-0.705
17.3667,-0.695
17.3694,-0.7
17.3722,-0.7
17.375,-0.685
17.3778,-0.695
17.3806,-0.71
17.3833,-0.72
17.3861,-0.72
17.3889,-0.705
17.3917,-0.705
17.3944,-0.685
17.3972,-0.685
17.4,-0.695
17.4028,-0.68
17.4056,-0.68
17.4083,-0.685
17.4111,-0.69
17.4139,-0.685
17.4167,-0.685
17.4194,-0.695
17.4222,-0.69
17.425,-0.685
17.4278,-0.665
17.4306,-0.645
17.4333,-0.63
17.4361,-0.625
17.4389,-0.61
17.4417,-0.605
17.4444,-0.605
17.4472,-0.61
17.45,-0.61
17.4528,-0.605
17.4556,-0.6
17.4583,-0.575
17.4611,-0.555
17.4639,-0.525
17.4667,-0.505
17.4694,-0.495
17.4722,-0.505
17.475,-0.48
17.4778,-0.475
17.4806,-0.455
17.4833,-0.455
17.4861,-0.445
17.4889,-0.445
17.4917,-0.405
17.4944,-0.37
17.4972,-0.345
17.5,-0.315
17.5028,-0.29
17.5056,-0.295
17.5083,-0.27
17.5111,-0.28
17.5139,-0.27
17.5167,-0.25
17.5194,-0.24
17.5222,-0.215
17.525,-0.19
17.5278,-0.185
17.5306,-0.175
17.5333,-0.15
17.5361,-0.14
17.5389,-0.13
17.5417,-0.145
17.5444,-0.145
17.5472,-0.16
17.55,-0.185
17.5528,-0.18
17.5556,-0.2
17.5583,-0.195
17.5611,-0.21
17.5639,-0.235
17.5667,-0.255
17.5694,-0.28
17.5722,-0.31
17.575,-0.34
17.5778,-0.385
17.5806,-0.44
17.5833,-0.445
17.5861,-0.46
17.5889,-0.5
17.5917,-0.525
17.5944,-0.55
17.5972,-0.56
17.6,-0.57
17.6028,-0.575
17.6056,-0.595
17.6083,-0.61
17.6111,-0.635
17.6139,-0.645
17.6167,-0.66
17.6194,-0.66
17.6222,-0.68
17.625,-0.675
17.6278,-0.685
17.6306,-0.675
17.6333,-0.68
17.6361,-0.69
17.6389,-0.7
17.6417,-0.69
17.6444,-0.705
17.6472,-0.72
17.65,-0.72
17.6528,-0.72
17.6556,-0.71
17.6583,-0.71
17.6611,-0.71
17.6639,-0.71
17.6667,-0.7
17.6694,-0.685
17.6722,-0.69
17.675,-0.69
17.6778,-0.7
17.6806,-0.705
17.6833,-0.72
17.6861,-0.715
17.6889,-0.71
17.6917,-0.71
17.6944,-0.695
17.6972,-0.69
17.7,-0.675
17.7028,-0.67
17.7056,-0.68
17.7083,-0.685
17.7111,-0.68
17.7139,-0.685
17.7167,-0.69
17.7194,-0.7
17.7222,-0.705
17.725,-0.69
17.7278,-0.68
17.7306,-0.69
17.7333,-0.675
17.7361,-0.67
17.7389,-0.66
17.7417,-0.66
17.7444,-0.665
17.7472,-0.68
17.75,-0.685
17.7528,-0.69
17.7556,-0.7
17.7583,-0.695
17.7611,-0.675
17.7639,-0.685
17.7667,-0.675
17.7694,-0.675
17.7722,-0.67
17.775,-0.675
17.7778,-0.7
17.7806,-0.71
17.7833,-0.71
17.7861,-0.705
17.7889,-0.725
17.7917,-0.725
17.7944,-0.72
17.7972,-0.715
17.8,-0.7
17.8028,-0.7
17.8056,-0.695
17.8083,-0.695
17.8111,-0.725
17.8139,-0.73
17.8167,-0.75
17.8194,-0.755
17.8222,-0.75
17.825,-0.745
17.8278,-0.74
17.8306,-0.74
17.8333,-0.725
17.8361,-0.715
17.8389,-0.73
17.8417,-0.745
17.8444,-0.755
17.8472,-0.76
17.85,-0.77
17.8528,-0.775
17.8556,-0.765
17.8583,-0.765
17.8611,-0.765
17.8639,-0.745
17.8667,-0.74
17.8694,-0.74
17.8722,-0.74
17.875,-0.735
17.8778,-0.765
17.8806,-0.77
17.8833,-0.795
17.8861,-0.795
17.8889,-0.79
17.8917,-0.785
17.8944,-0.76
17.8972,-0.755
17.9,-0.745
17.9028,-0.74
17.9056,-0.735
17.9083,-0.745
17.9111,-0.755
17.9139,-0.765
17.9167,-0.775
17.9194,-0.775
17.9222,-0.77
17.925,-0.75
17.9278,-0.75
17.9306,-0.75
17.9333,-0.73
17.9361,-0.725
17.9389,-0.705
17.9417,-0.69
17.9444,-0.7
17.9472,-0.695
17.95,-0.675
17.9528,-0.665
17.9556,-0.65
17.9583,-0.645
17.9611,-0.615
17.9639,-0.6
17.9667,-0.59
17.9694,-0.575
17.9722,-0.565
17.975,-0.575
17.9778,-0.575
17.9806,-0.615
17.9833,-0.665
17.9861,-0.68
17.9889,-0.71
17.9917,-0.725
17.9944,-0.72
17.9972,-0.72
18.0,-0.705
18.0028,-0.72
18.0056,-0.725
18.0083,-0.75
18.0111,-0.75
18.0139,-0.785
18.0167,-0.8
18.0194,-0.8
18.0222,-0.8
18.025,-0.785
18.0278,-0.77
18.0306,-0.775
18.0333,-0.785
18.0361,-0.77
18.0389,-0.77
18.0417,-0.775
18.0444,-0.78
18.0472,-0.785
18.05,-0.795
18.0528,-0.83
18.0556,-0.815
18.0583,-0.795
18.0611,-0.79
18.0639,-0.76
18.0667,-0.77
18.0694,-0.76
18.0722,-0.765
18.075,-0.77
18.0778,-0.775
18.0806,-0.785
18.0833,-0.79
18.0861,-0.8
18.0889,-0.82
18.0917,-0.855
18.0944,-0.85
18.0972,-0.835
18.1,-0.775
18.1028,-0.665
18.1056,-0.515
18.1083,-0.255
18.1111,0.075
18.1139,0.44
18.1167,0.83
18.1194,1.125
18.1222,1.34
18.125,1.425
18.1278,1.37
18.1306,1.19
18.1333,0.82
18.1361,0.325
18.1389,-0.225
18.1417,-0.69
18.1444,-0.925
18.1472,-0.945
18.15,-0.845
18.1528,-0.7
18.1556,-0.58
18.1583,-0.52
18.1611,-0.54
18.1639,-0.605
18.1667,-0.65
18.1694,-0.7
18.1722,-0.73
18.175,-0.78
18.1778,-0.765
18.1806,-0.76
18.1833,-0.77
18.1861,-0.765
18.1889,-0.76
18.1917,-0.77
18.1944,-0.775
18.1972,-0.755
18.2,-0.755
18.2028,-0.755
18.2056,-0.75
18.2083,-0.755
18.2111,-0.765
18.2139,-0.765
18.2167,-0.77
18.2194,-0.785
18.2222,-0.77
18.225,-0.785
18.2278,-0.765
18.2306,-0.775
18.2333,-0.76
18.2361,-0.765
18.2389,-0.76
18.2417,-0.775
18.2444,-0.77
18.2472,-0.775
18.25,-0.8
18.2528,-0.795
18.2556,-0.795
18.2583,-0.79
18.2611,-0.785
18.2639,-0.77
18.2667,-0.765
18.2694,-0.765
18.2722,-0.77
18.275,-0.77
18.2778,-0.755
18.2806,-0.77
18.2833,-0.78
18.2861,-0.78
18.2889,-0.775
18.2917,-0.755
18.2944,-0.745
18.2972,-0.74
18.3,-0.735
18.3028,-0.71
18.3056,-0.72
18.3083,-0.7
18.3111,-0.705
18.3139,-0.705
18.3167,-0.72
18.3194,-0.715
18.3222,-0.72
18.325,-0.71
18.3278,-0.68
18.3306,-0.66
18.3333,-0.65
18.3361,-0.65
18.3389,-0.63
18.3417,-0.625
18.3444,-0.63
18.3472,-0.63
18.35,-0.6
18.3528,-0.585
18.3556,-0.58
18.3583,-0.56
18.3611,-0.53
18.3639,-0.5
18.3667,-0.485
18.3694,-0.465
18.3722,-0.45
18.375,-0.425
18.3778,-0.42
18.3806,-0.41
18.3833,-0.405
18.3861,-0.4
18.3889,-0.365
18.3917,-0.345
18.3944,-0.32
18.3972,-0.3
18.4,-0.27
18.4028,-0.26
18.4056,-0.255
18.4083,-0.245
18.4111,-0.245
18.4139,-0.25
18.4167,-0.245
18.4194,-0.24
18.4222,-0.23
18.425,-0.205
18.4278,-0.19
18.4306,-0.195
18.4333,-0.185
18.4361,-0.195
18.4389,-0.215
18.4417,-0.225
18.4444,-0.255
18.4472,-0.28
18.45,-0.32
18.4528,-0.37
18.4556,-0.395
18.4583,-0.415
18.4611,-0.425
18.4639,-0.45
18.4667,-0.47
18.4694,-0.49
18.4722,-0.53
18.475,-0.565
18.4778,-0.585
18.4806,-0.62
18.4833,-0.63
18.4861,-0.65
18.4889,-0.685
18.4917,-0.7
18.4944,-0.695
18.4972,-0.695
18.5,-0.7
18.5028,-0.705
18.5056,-0.715
18.5083,-0.72
18.5111,-0.745
18.5139,-0.75
18.5167,-0.765
18.5194,-0.77
18.5222,-0.77
18.525,-0.775
18.5278,-0.78
18.5306,-0.795
18.5333,-0.79
18.5361,-0.785
18.5389,-0.775
18.5417,-0.765
18.5444,-0.795
18.5472,-0.795
18.55,-0.795
18.5528,-0.815
18.5556,-0.795
18.5583,-0.785
18.5611,-0.75
18.5639,-0.73
18.5667,-0.72
18.5694,-0.725
18.5722,-0.735
18.575,-0.745
18.5778,-0.75
18.5806,-0.75
18.5833,-0.75
18.5861,-0.765
18.5889,-0.74
18.5917,-0.735
18.5944,-0.725
18.5972,-0.73
18.6,-0.725
18.6028,-0.715
18.6056,-0.725
18.6083,-0.71
18.6111,-0.715
18.6139,-0.725
18.6167,-0.74
18.6194,-0.735
18.6222,-0.74
18.625,-0.725
18.6278,-0.73
18.6306,-0.7
18.6333,-0.69
18.6361,-0.68
18.6389,-0.69
18.6417,-0.7
18.6444,-0.71
18.6472,-0.725
18.65,-0.73
18.6528,-0.73
18.6556,-0.75
18.6583,-0.745
18.6611,-0.73
18.6639,-0.71
18.6667,-0.72
18.6694,-0.72
18.6722,-0.72
18.675,-0.725
18.6778,-0.74
18.6806,-0.755
18.6833,-0.765
18.6861,-0.785
18.6889,-0.79
18.6917,-0.775
18.6944,-0.765
18.6972,-0.755
18.7,-0.76
18.7028,-0.755
18.7056,-0.755
18.7083,-0.745
18.7111,-0.75
18.7139,-0.74
18.7167,-0.775
18.7194,-0.775
18.7222,-0.785
18.725,-0.785
18.7278,-0.785
18.7306,-0.765
18.7333,-0.76
18.7361,-0.75
18.7389,-0.75
18.7417,-0.755
18.7444,-0.76
18.7472,-0.77
18.75,-0.79
18.7528,-0.78
18.7556,-0.785
18.7583,-0.775
18.7611,-0.785
18.7639,-0.755
18.7667,-0.74
18.7694,-0.745
18.7722,-0.745
18.775,-0.755
18.7778,-0.745
18.7806,-0.755
18.7833,-0.755
18.7861,-0.75
18.7889,-0.725
18.7917,-0.72
18.7944,-0.69
18.7972,-0.68
18.8,-0.66
18.8028,-0.645
18.8056,-0.645
18.8083,-0.63
18.8111,-0.605
18.8139,-0.595
18.8167,-0.585
18.8194,-0.57
18.8222,-0.56
18.825,-0.58
18.8278,-0.595
18.8306,-0.615
18.8333,-0.65
18.8361,-0.67
18.8389,-0.685
18.8417,-0.695
18.8444,-0.7
18.8472,-0.74
18.85,-0.75
18.8528,-0.765
18.8556,-0.8
18.8583,-0.82
18.8611,-0.815
18.8639,-0.83
18.8667,-0.825
18.8694,-0.805
18.8722,-0.82
18.875,-0.805
18.8778,-0.81
18.8806,-0.81
18.8833,-0.83
18.8861,-0.845
18.8889,-0.835
18.8917,-0.825
18.8944,-0.825
18.8972,-0.815
18.9,-0.805
18.9028,-0.795
18.9056,-0.8
18.9083,-0.8
18.9111,-0.82
18.9139,-0.815
18.9167,-0.81
18.9194,-0.82
18.9222,-0.82
18.925,-0.82
18.9278,-0.81
18.9306,-0.815
18.9333,-0.825
18.9361,-0.845
18.9389,-0.865
18.9417,-0.86
18.9444,-0.795
18.9472,-0.68
18.95,-0.515
18.9528,-0.255
18.9556,0.06
18.9583,0.425
18.9611,0.8
18.9639,1.115
18.9667,1.32
18.9694,1.43
18.9722,1.38
18.975,1.255
18.9778,1.02
18.9806,0.605
18.9833,0.075
18.9861,-0.45
18.9889,-0.835
18.9917,-1.0
18.9944,-0.985
18.9972,-0.83
19.0,-0.67
19.0028,-0.555
19.0056,-0.52
19.0083,-0.55
19.0111,-0.61
19.0139,-0.68
19.0167,-0.75
19.0194,-0.785
19.0222,-0.795
19.025,-0.81
19.0278,-0.805
19.0306,-0.775
19.0333,-0.77
19.0361,-0.76
19.0389,-0.79
19.0417,-0.785
19.0444,-0.79
19.0472,-0.785
19.05,-0.81
19.0528,-0.83
19.0556,-0.825
19.0583,-0.805
19.0611,-0.81
19.0639,-0.795
19.0667,-0.795
19.0694,-0.81
19.0722,-0.805
19.075,-0.795
19.0778,-0.81
19.0806,-0.805
19.0833,-0.8
19.0861,-0.815
19.0889,-0.83
19.0917,-0.81
19.0944,-0.8
19.0972,-0.795
19.1,-0.775
19.1028,-0.79
19.1056,-0.785
19.1083,-0.81
19.1111,-0.8
19.1139,-0.805
19.1167,-0.81
19.1194,-0.815
19.1222,-0.815
19.125,-0.81
19.1278,-0.785
19.1306,-0.78
19.1333,-0.77
19.1361,-0.79
19.1389,-0.785
19.1417,-0.8
19.1444,-0.79
19.1472,-0.79
19.15,-0.805
19.1528,-0.8
19.1556,-0.795
19.1583,-0.795
19.1611,-0.765
19.1639,-0.765
19.1667,-0.73
19.1694,-0.725
19.1722,-0.715
19.175,-0.715
19.1778,-0.705
19.1806,-0.72
19.1833,-0.705
19.1861,-0.7
19.1889,-0.695
19.1917,-0.685
19.1944,-0.655
19.1972,-0.635
19.2,-0.605
19.2028,-0.59
19.2056,-0.585
19.2083,-0.595
19.2111,-0.56
19.2139,-0.56
19.2167,-0.545
19.2194,-0.53
19.2222,-0.51
19.225,-0.51
19.2278,-0.465
19.2306,-0.42
19.2333,-0.395
19.2361,-0.39
19.2389,-0.375
19.2417,-0.365
19.2444,-0.375
19.2472,-0.355
19.25,-0.355
19.2528,-0.345
19.2556,-0.325
19.2583,-0.3
19.2611,-0.275
19.2639,-0.255
19.2667,-0.23
19.2694,-0.225
19.2722,-0.23
19.275,-0.245
19.2778,-0.23
19.2806,-0.25
19.2833,-0.28
19.2861,-0.31
19.2889,-0.335
19.2917,-0.365
19.2944,-0.375
19.2972,-0.38
19.3,-0.395
19.3028,-0.42
19.3056,-0.45
19.3083,-0.51
19.3111,-0.515
19.3139,-0.585
19.3167,-0.625
19.3194,-0.655
19.3222,-0.68
19.325,-0.695
19.3278,-0.7
19.3306,-0.725
19.3333,-0.72
19.3361,-0.725
19.3389,-0.76
19.3417,-0.76
19.3444,-0.78
19.3472,-0.8
19.35,-0.83
19.3528,-0.825
19.3556,-0.84
19.3583,-0.84
19.3611,-0.83
19.3639,-0.83
19.3667,-0.83
19.3694,-0.82
19.3722,-0.825
19.375,-0.84
19.3778,-0.85
19.3806,-0.86
19.3833,-0.865
19.3861,-0.85
19.3889,-0.865
19.3917,-0.87
19.3944,-0.855
19.3972,-0.86
19.4,-0.825
19.4028,-0.815
19.4056,-0.83
19.4083,-0.825
19.4111,-0.825
19.4139,-0.83
19.4167,-0.845
19.4194,-0.83
19.4222,-0.83
19.425,-0.83
19.4278,-0.815
19.4306,-0.8
19.4333,-0.785
19.4361,-0.785
19.4389,-0.78
19.4417,-0.785
19.4444,-0.81
19.4472,-0.805
19.45,-0.81
19.4528,-0.805
19.4556,-0.81
19.4583,-0.795
19.4611,-0.78
19.4639,-0.77
19.4667,-0.76
19.4694,-0.745
19.4722,-0.755
19.475,-0.765
19.4778,-0.765
19.4806,-0.78
19.4833,-0.795
19.4861,-0.795
19.4889,-0.795
19.4917,-0.79
19.4944,-0.77
19.4972,-0.775
19.5,-0.765
19.5028,-0.765
19.5056,-0.77
19.5083,-0.79
19.5111,-0.78
19.5139,-0.79
19.5167,-0.805
19.5194,-0.82
19.5222,-0.83
19.525,-0.825
19.5278,-0.8
19.5306,-0.8
19.5333,-0.79
19.5361,-0.775
19.5389,-0.795
19.5417,-0.8
19.5444,-0.8
19.5472,-0.815
19.55,-0.825
19.5528,-0.84
19.5556,-0.835
19.5583,-0.83
19.5611,-0.825
19.5639,-0.81
19.5667,-0.825
19.5694,-0.81
19.5722,-0.815
19.575,-0.825
19.5778,-0.835
19.5806,-0.855
19.5833,-0.84
19.5861,-0.845
19.5889,-0.84
19.5917,-0.84
19.5944,-0.83
19.5972,-0.835
19.6,-0.845
19.6028,-0.835
19.6056,-0.84
19.6083,-0.85
19.6111,-0.85
19.6139,-0.84
19.6167,-0.855
19.6194,-0.855
19.6222,-0.85
19.625,-0.86
19.6278,-0.84
19.6306,-0.825
19.6333,-0.825
19.6361,-0.825
19.6389,-0.845
19.6417,-0.845
19.6444,-0.835
19.6472,-0.83
19.65,-0.82
19.6528,-0.815
19.6556,-0.805
19.6583,-0.785
19.6611,-0.75
19.6639,-0.74
19.6667,-0.725
19.6694,-0.7
19.6722,-0.695
19.675,-0.69
19.6778,-0.7
19.6806,-0.695
19.6833,-0.67
19.6861,-0.645
19.6889,-0.625
19.6917,-0.605
19.6944,-0.575
19.6972,-0.57
19.7,-0.56
19.7028,-0.59
19.7056,-0.625
19.7083,-0.675
19.7111,-0.7
19.7139,-0.72
19.7167,-0.745
19.7194,-0.755
19.7222,-0.775
19.725,-0.795
19.7278,-0.8
19.7306,-0.825
19.7333,-0.845
19.7361,-0.845
19.7389,-0.85
19.7417,-0.85
19.7444,-0.865
19.7472,-0.855
19.75,-0.87
19.7528,-0.86
19.7556,-0.89
19.7583,-0.885
19.7611,-0.88
19.7639,-0.865
19.7667,-0.845
19.7694,-0.86
19.7722,-0.875
19.775,-0.865
19.7778,-0.875
19.7806,-0.86
19.7833,-0.865
19.7861,-0.86
19.7889,-0.86
19.7917,-0.86
19.7944,-0.87
19.7972,-0.865
19.8,-0.845
19.8028,-0.84
19.8056,-0.84
19.8083,-0.84
19.8111,-0.845
19.8139,-0.85
19.8167,-0.845
19.8194,-0.86
19.8222,-0.89
19.825,-0.915
19.8278,-0.915
19.8306,-0.885
19.8333,-0.8
19.8361,-0.65
19.8389,-0.45
19.8417,-0.16
19.8444,0.17
19.8472,0.57
19.85,0.91
19.8528,1.175
19.8556,1.325
19.8583,1.34
19.8611,1.265
19.8639,1.09
19.8667,0.75
19.8694,0.27
19.8722,-0.29
19.875,-0.735
19.8778,-0.995
19.8806,-1.025
19.8833,-0.94
19.8861,-0.785
19.8889,-0.65
19.8917,-0.605
19.8944,-0.615
19.8972,-0.67
19.9,-0.72
19.9028,-0.77
19.9056,-0.8
19.9083,-0.83
19.9111,-0.845
19.9139,-0.855
19.9167,-0.855
19.9194,-0.85
19.9222,-0.86
19.925,-0.855
19.9278,-0.855
19.9306,-0.84
19.9333,-0.835
19.9361,-0.835
19.9389,-0.845
19.9417,-0.85
19.9444,-0.86
19.9472,-0.865
19.95,-0.875
19.9528,-0.885
19.9556,-0.895
19.9583,-0.875
19.9611,-0.885
19.9639,-0.865
19.9667,-0.855
19.9694,-0.845
19.9722,-0.845
19.975,-0.86
19.9778,-0.855
19.9806,-0.875
19.9833,-0.875
19.9861,-0.87
19.9889,-0.88
19.9917,-0.885
19.9944,-0.88
19.9972,-0.86
20.0,-0.845
20.0028,-0.825
20.0056,-0.84
20.0083,-0.835
20.0111,-0.84
20.0139,-0.865
20.0167,-0.87
20.0194,-0.85
20.0222,-0.845
20.025,-0.85
20.0278,-0.845
20.0306,-0.835
20.0333,-0.82
20.0361,-0.825
20.0389,-0.825
20.0417,-0.835
20.0444,-0.825
20.0472,-0.835
20.05,-0.83
20.0528,-0.82
20.0556,-0.81
20.0583,-0.8
20.0611,-0.79
20.0639,-0.77
20.0667,-0.745
20.0694,-0.735
20.0722,-0.735
20.075,-0.725
20.0778,-0.715
20.0806,-0.72
20.0833,-0.72
20.0861,-0.71
20.0889,-0.705
20.0917,-0.695
20.0944,-0.66
20.0972,-0.625
20.1,-0.605
20.1028,-0.59
20.1056,-0.575
20.1083,-0.575
20.1111,-0.55
20.1139,-0.555
20.1167,-0.535
20.1194,-0.52
20.1222,-0.5
20.125,-0.495
20.1278,-0.45
20.1306,-0.43
20.1333,-0.405
20.1361,-0.365
20.1389,-0.36
20.1417,-0.35
20.1444,-0.34
20.1472,-0.335
20.15,-0.34
20.1528,-0.32
20.1556,-0.305
20.1583,-0.3
20.1611,-0.275
20.1639,-0.27
20.1667,-0.265
20.1694,-0.265
20.1722,-0.265
20.175,-0.285
20.1778,-0.3
20.1806,-0.315
20.1833,-0.34
20.1861,-0.365
20.1889,-0.41
20.1917,-0.425
20.1944,-0.44
20.1972,-0.455
20.2,-0.485
20.2028,-0.515
20.2056,-0.545
20.2083,-0.57
20.2111,-0.615
20.2139,-0.625
20.2167,-0.67
20.2194,-0.705
20.2222,-0.74
20.225,-0.74
20.2278,-0.745
20.2306,-0.74
20.2333,-0.755
20.2361,-0.765
20.2389,-0.775
20.2417,-0.795
20.2444,-0.8
20.2472,-0.81
20.25,-0.825
20.2528,-0.83
20.2556,-0.85
20.2583,-0.855
20.2611,-0.85
20.2639,-0.845
20.2667,-0.825
20.2694,-0.82
20.2722,-0.825
20.275,-0.83
20.2778,-0.86
20.2806,-0.865
20.2833,-0.85
20.2861,-0.87
20.2889,-0.86
20.2917,-0.86
20.2944,-0.85
20.2972,-0.84
20.3,-0.825
20.3028,-0.84
20.3056,-0.83
20.3083,-0.82
20.3111,-0.84
20.3139,-0.845
20.3167,-0.86
20.3194,-0.84
20.3222,-0.845
20.325,-0.85
20.3278,-0.825
20.3306,-0.825
20.3333,-0.815
20.3361,-0.8
20.3389,-0.8
20.3417,-0.795
20.3444,-0.795
20.3472,-0.81
20.35,-0.82
20.3528,-0.82
20.3556,-0.8
20.3583,-0.81
20.3611,-0.815
20.3639,-0.795
20.3667,-0.78
20.3694,-0.78
20.3722,-0.78
20.375,-0.78
20.3778,-0.79
20.3806,-0.805
20.3833,-0.805
20.3861,-0.81
20.3889,-0.815
20.3917,-0.81
20.3944,-0.8
20.3972,-0.8
20.4,-0.79
20.4028,-0.795
20.4056,-0.79
20.4083,-0.795
20.4111,-0.805
20.4139,-0.81
20.4167,-0.83
20.4194,-0.82
20.4222,-0.85
20.425,-0.825
20.4278,-0.83
20.4306,-0.82
20.4333,-0.84
20.4361,-0.82
20.4389,-0.82
20.4417,-0.825
20.4444,-0.84
20.4472,-0.84
20.45,-0.845
20.4528,-0.845
20.4556,-0.855
20.4583,-0.85
20.4611,-0.855
20.4639,-0.85
20.4667,-0.84
20.4694,-0.84
20.4722,-0.83
20.475,-0.845
20.4778,-0.855
20.4806,-0.87
20.4833,-0.87
20.4861,-0.875
20.4889,-0.875
20.4917,-0.875
20.4944,-0.88
20.4972,-0.86
20.5,-0.86
20.5028,-0.86
20.5056,-0.87
20.5083,-0.88
20.5111,-0.87
20.5139,-0.87
20.5167,-0.885
20.5194,-0.895
20.5222,-0.9
20.525,-0.895
20.5278,-0.885
20.5306,-0.86
20.5333,-0.895
20.5361,-0.865
20.5389,-0.87
20.5417,-0.85
20.5444,-0.86
20.5472,-0.865
20.55,-0.895
20.5528,-0.895
20.5556,-0.895
20.5583,-0.885
20.5611,-0.88
20.5639,-0.88
20.5667,-0.865
20.5694,-0.84
20.5722,-0.815
20.575,-0.81
20.5778,-0.79
20.5806,-0.795
20.5833,-0.785
20.5861,-0.78
20.5889,-0.78
20.5917,-0.765
20.5944,-0.745
20.5972,-0.72
20.6,-0.7
20.6028,-0.67
20.6056,-0.665
20.6083,-0.645
20.6111,-0.635
20.6139,-0.665
20.6167,-0.7
20.6194,-0.75
20.6222,-0.77
20.625,-0.785
20.6278,-0.805
20.6306,-0.805
20.6333,-0.795
20.6361,-0.795
20.6389,-0.83
20.6417,-0.835
20.6444,-0.85
20.6472,-0.885
20.65,-0.905
20.6528,-0.93
20.6556,-0.915
20.6583,-0.915
20.6611,-0.915
20.6639,-0.89
20.6667,-0.88
20.6694,-0.87
20.6722,-0.88
20.675,-0.885
20.6778,-0.915
20.6806,-0.9
20.6833,-0.9
20.6861,-0.915
20.6889,-0.915
20.6917,-0.9
20.6944,-0.89
20.6972,-0.885
20.7,-0.89
20.7028,-0.895
20.7056,-0.875
20.7083,-0.885
20.7111,-0.88
20.7139,-0.91
20.7167,-0.895
20.7194,-0.905
20.7222,-0.905
20.725,-0.905
20.7278,-0.88
20.7306,-0.875
20.7333,-0.905
20.7361,-0.915
20.7389,-0.935
20.7417,-0.945
20.7444,-0.91
20.7472,-0.84
20.75,-0.685
20.7528,-0.48
20.7556,-0.2
20.7583,0.145
20.7611,0.55
20.7639,0.895
20.7667,1.155
20.7694,1.295
20.7722,1.32
20.775,1.265
20.7778,1.09
20.7806,0.75
20.7833,0.3
20.7861,-0.24
20.7889,-0.72
20.7917,-0.995
20.7944,-1.055
20.7972,-0.97
20.8,-0.815
20.8028,-0.665
20.8056,-0.605
20.8083,-0.61
20.8111,-0.675
20.8139,-0.74
20.8167,-0.82
20.8194,-0.86
20.8222,-0.885
20.825,-0.89
20.8278,-0.87
20.8306,-0.86
20.8333,-0.85
20.8361,-0.845
20.8389,-0.845
20.8417,-0.865
20.8444,-0.865
20.8472,-0.88
20.85,-0.895
20.8528,-0.895
20.8556,-0.9
20.8583,-0.905
20.8611,-0.895
20.8639,-0.885
20.8667,-0.865
20.8694,-0.895
20.8722,-0.88
20.875,-0.875
20.8778,-0.875
20.8806,-0.88
20.8833,-0.885
20.8861,-0.895
20.8889,-0.885
20.8917,-0.88
20.8944,-0.875
20.8972,-0.87
20.9,-0.88
20.9028,-0.855
20.9056,-0.86
20.9083,-0.865
20.9111,-0.865
20.9139,-0.88
20.9167,-0.89
20.9194,-0.875
20.9222,-0.875
20.925,-0.875
20.9278,-0.865
20.9306,-0.85
20.9333,-0.85
20.9361,-0.85
20.9389,-0.825
20.9417,-0.825
20.9444,-0.825
20.9472,-0.82
20.95,-0.825
20.9528,-0.81
20.9556,-0.81
20.9583,-0.81
20.9611,-0.8
20.9639,-0.785
20.9667,-0.775
20.9694,-0.75
20.9722,-0.755
20.975,-0.74
20.9778,-0.725
20.9806,-0.73
20.9833,-0.715
20.9861,-0.71
20.9889,-0.72
20.9917,-0.715
20.9944,-0.675
20.9972,-0.66
21.0,-0.625
21.0028,-0.61
21.0056,-0.58
21.0083,-0.565
21.0111,-0.55
21.0139,-0.535
21.0167,-0.535
21.0194,-0.515
21.0222,-0.48
21.025,-0.465
21.0278,-0.435
21.0306,-0.4
21.0333,-0.375
21.0361,-0.365
21.0389,-0.335
21.0417,-0.32
21.0444,-0.315
21.0472,-0.32
21.05,-0.32
21.0528,-0.29
21.0556,-0.28
21.0583,-0.27
21.0611,-0.265
21.0639,-0.25
21.0667,-0.255
21.0694,-0.235
21.0722,-0.245
21.075,-0.26
21.0778,-0.26
21.0806,-0.305
21.0833,-0.33
21.0861,-0.365
21.0889,-0.37
21.0917,-0.405
21.0944,-0.425
21.0972,-0.445
21.1,-0.47
21.1028,-0.5
21.1056,-0.54
21.1083,-0.57
21.1111,-0.605
21.1139,-0.64
21.1167,-0.655
21.1194,-0.695
21.1222,-0.725
21.125,-0.735
21.1278,-0.75
21.1306,-0.755
21.1333,-0.745
21.1361,-0.745
21.1389,-0.75
21.1417,-0.78
21.1444,-0.78
21.1472,-0.805
21.15,-0.81
21.1528,-0.835
21.1556,-0.845
21.1583,-0.83
21.1611,-0.825
21.1639,-0.82
21.1667,-0.825
21.1694,-0.81
21.1722,-0.815
21.175,-0.835
21.1778,-0.83
21.1806,-0.845
21.1833,-0.835
21.1861,-0.84
21.1889,-0.84
21.1917,-0.84
21.1944,-0.83
21.1972,-0.825
21.2,-0.835
21.2028,-0.815
21.2056,-0.815
21.2083,-0.815
21.2111,-0.82
21.2139,-0.83
21.2167,-0.825
21.2194,-0.83
21.2222,-0.82
21.225,-0.82
21.2278,-0.815
21.2306,-0.81
21.2333,-0.805
21.2361,-0.795
21.2389,-0.79
21.2417,-0.78
21.2444,-0.76
21.2472,-0.78
21.25,-0.77
21.2528,-0.785
21.2556,-0.785
21.2583,-0.79
21.2611,-0.78
21.2639,-0.775
21.2667,-0.785
21.2694,-0.765
21.2722,-0.765
21.275,-0.775
21.2778,-0.765
21.2806,-0.78
21.2833,-0.785
21.2861,-0.79
21.2889,-0.79
21.2917,-0.79
21.2944,-0.785
21.2972,-0.77
21.3,-0.77
21.3028,-0.765
21.3056,-0.775
21.3083,-0.785
21.3111,-0.785
21.3139,-0.795
21.3167,-0.795
21.3194,-0.8
21.3222,-0.815
21.325,-0.81
21.3278,-0.81
21.3306,-0.795
21.3333,-0.795
21.3361,-0.795
21.3389,-0.79
21.3417,-0.795
21.3444,-0.805
21.3472,-0.82
21.35,-0.83
21.3528,-0.83
21.3556,-0.825
21.3583,-0.83
21.3611,-0.83
21.3639,-0.825
21.3667,-0.81
21.3694,-0.805
21.3722,-0.8
21.375,-0.82
21.3778,-0.82
21.3806,-0.825
21.3833,-0.84
21.3861,-0.84
21.3889,-0.845
21.3917,-0.84
21.3944,-0.82
21.3972,-0.81
21.4,-0.81
21.4028,-0.8
21.4056,-0.805
21.4083,-0.79
21.4111,-0.8
21.4139,-0.82
21.4167,-0.835
21.4194,-0.84
21.4222,-0.84
21.425,-0.825
21.4278,-0.805
21.4306,-0.785
21.4333,-0.785
21.4361,-0.77
21.4389,-0.76
21.4417,-0.77
21.4444,-0.755
21.4472,-0.73
21.45,-0.705
21.4528,-0.68
21.4556,-0.685
21.4583,-0.665
21.4611,-0.645
21.4639,-0.605
21.4667,-0.57
21.4694,-0.525
21.4722,-0.495
21.475,-0.48
21.4778,-0.465
21.4806,-0.48
21.4833,-0.505
21.4861,-0.525
21.4889,-0.54
21.4917,-0.52
21.4944,-0.515
21.4972,-0.535
21.5,-0.55
21.5028,-0.575
21.5056,-0.62
21.5083,-0.685
21.5111,-0.74
21.5139,-0.8
21.5167,-0.835
21.5194,-0.855
21.5222,-0.89
21.525,-0.885
21.5278,-0.88
21.5306,-0.855
21.5333,-0.86
21.5361,-0.85
21.5389,-0.845
21.5417,-0.84
21.5444,-0.845
21.5472,-0.86
21.55,-0.88
21.5528,-0.89
21.5556,-0.895
21.5583,-0.905
21.5611,-0.885
21.5639,-0.885
21.5667,-0.88
21.5694,-0.87
21.5722,-0.86
21.575,-0.85
21.5778,-0.85
21.5806,-0.855
21.5833,-0.865
21.5861,-0.88
21.5889,-0.89
21.5917,-0.88
21.5944,-0.88
21.5972,-0.885
21.6,-0.895
21.6028,-0.895
21.6056,-0.9
21.6083,-0.875
21.6111,-0.79
21.6139,-0.645
21.6167,-0.45
21.6194,-0.18
21.6222,0.15
21.625,0.53
21.6278,0.885
21.6306,1.16
21.6333,1.325
21.6361,1.37
21.6389,1.31
21.6417,1.12
21.6444,0.75
21.6472,0.24
21.65,-0.3
21.6528,-0.78
21.6556,-1.04
21.6583,-1.095
21.6611,-0.96
21.6639,-0.795
21.6667,-0.655
21.6694,-0.59
21.6722,-0.585
21.675,-0.645
21.6778,-0.72
21.6806,-0.785
21.6833,-0.845
21.6861,-0.865
21.6889,-0.865
21.6917,-0.86
21.6944,-0.86
21.6972,-0.85
21.7,-0.845
21.7028,-0.835
21.7056,-0.835
21.7083,-0.845
21.7111,-0.855
21.7139,-0.86
21.7167,-0.875
21.7194,-0.895
21.7222,-0.885
21.725,-0.885
21.7278,-0.885
21.7306,-0.865
21.7333,-0.865
21.7361,-0.845
21.7389,-0.85
21.7417,-0.855
21.7444,-0.85
21.7472,-0.86
21.75,-0.865
21.7528,-0.875
21.7556,-0.88
21.7583,-0.875
21.7611,-0.875
21.7639,-0.865
21.7667,-0.84
21.7694,-0.855
21.7722,-0.835
21.775,-0.85
21.7778,-0.855
21.7806,-0.855
21.7833,-0.86
21.7861,-0.855
21.7889,-0.865
21.7917,-0.865
21.7944,-0.87
21.7972,-0.835
21.8,-0.82
21.8028,-0.815
21.8056,-0.805
21.8083,-0.8
21.8111,-0.79
21.8139,-0.825
21.8167,-0.805
21.8194,-0.815
21.8222,-0.785
21.825,-0.795
21.8278,-0.79
21.8306,-0.755
21.8333,-0.74
21.8361,-0.73
21.8389,-0.71
21.8417,-0.705
21.8444,-0.72
21.8472,-0.72
21.85,-0.725
21.8528,-0.695
21.8556,-0.675
21.8583,-0.665
21.8611,-0.635
21.8639,-0.595
21.8667,-0.575
21.8694,-0.565
21.8722,-0.545
21.875,-0.525
21.8778,-0.515
21.8806,-0.495
21.8833,-0.48
21.8861,-0.48
21.8889,-0.46
21.8917,-0.44
21.8944,-0.415
21.8972,-0.385
21.9,-0.38
21.9028,-0.355
21.9056,-0.315
21.9083,-0.32
21.9111,-0.3
21.9139,-0.295
21.9167,-0.295
21.9194,-0.275
21.9222,-0.265
21.925,-0.25
21.9278,-0.245
21.9306,-0.24
21.9333,-0.24
21.9361,-0.225
21.9389,-0.245
21.9417,-0.24
21.9444,-0.265
21.9472,-0.295
21.95,-0.325
21.9528,-0.36
21.9556,-0.395
21.9583,-0.435
21.9611,-0.46
21.9639,-0.475
21.9667,-0.5
21.9694,-0.52
21.9722,-0.54
21.975,-0.565
21.9778,-0.6
21.9806,-0.63
21.9833,-0.66
21.9861,-0.69
21.9889,-0.72
21.9917,-0.73
21.9944,-0.745
21.9972,-0.765
22.0,-0.735
22.0028,-0.745
22.0056,-0.765
22.0083,-0.785
22.0111,-0.8
22.0139,-0.81
22.0167,-0.825
22.0194,-0.83
22.0222,-0.835
22.025,-0.84
22.0278,-0.83
22.0306,-0.83
22.0333,-0.825
22.0361,-0.815
22.0389,-0.82
22.0417,-0.82
22.0444,-0.84
22.0472,-0.845
22.05,-0.845
22.0528,-0.845
22.0556,-0.845
22.0583,-0.85
22.0611,-0.845
22.0639,-0.825
22.0667,-0.805
22.0694,-0.805
22.0722,-0.785
22.075,-0.785
22.0778,-0.78
22.0806,-0.775
22.0833,-0.77
22.0861,-0.78
22.0889,-0.775
22.0917,-0.78
22.0944,-0.77
22.0972,-0.765
22.1,-0.76
22.1028,-0.76
22.1056,-0.74
22.1083,-0.725
22.1111,-0.68
22.1139,-0.615
22.1167,-0.49
22.1194,-0.345
22.1222,-0.19
22.125,-0.015
22.1278,0.185
22.1306,0.395
22.1333,0.62
22.1361,0.84
22.1389,1.075
22.1417,1.305
22.1444,1.515
22.1472,1.715
22.15,1.88
22.1528,1.995
22.1556,2.075
22.1583,2.125
22.1611,2.15
22.1639,2.145
22.1667,2.115
22.1694,2.06
22.1722,1.98
22.175,1.88
22.1778,1.795
22.1806,1.745
22.1833,1.73
22.1861,1.765
22.1889,1.8
22.1917,1.805
22.1944,1.78
22.1972,1.7
22.2,1.595
22.2028,1.47
22.2056,1.305
22.2083,1.1
22.2111,0.84
22.2139,0.515
22.2167,0.14
22.2194,-0.26
22.2222,-0.615
22.225,-0.845
22.2278,-0.965
22.2306,-0.985
22.2333,-0.97
22.2361,-0.935
22.2389,-0.925
22.2417,-0.955
22.2444,-0.99
22.2472,-1.06
22.25,-1.115
22.2528,-1.16
22.2556,-1.18
22.2583,-1.2
22.2611,-1.215
22.2639,-1.22
22.2667,-1.215
22.2694,-1.225
22.2722,-1.225
22.275,-1.255
22.2778,-1.27
22.2806,-1.29
22.2833,-1.32
22.2861,-1.335
22.2889,-1.36
22.2917,-1.36
22.2944,-1.36
22.2972,-1.36
22.3,-1.355
22.3028,-1.37
22.3056,-1.38
22.3083,-1.395
22.3111,-1.405
22.3139,-1.425
22.3167,-1.425
22.3194,-1.44
22.3222,-1.45
22.325,-1.44
22.3278,-1.43
22.3306,-1.45
22.3333,-1.425
22.3361,-1.435
22.3389,-1.445
22.3417,-1.45
22.3444,-1.465
22.3472,-1.465
22.35,-1.47
22.3528,-1.45
22.3556,-1.44
22.3583,-1.44
22.3611,-1.42
22.3639,-1.44
22.3667,-1.45
22.3694,-1.485
22.3722,-1.52
22.375,-1.555
22.3778,-1.575
22.3806,-1.615
22.3833,-1.645
22.3861,-1.705
22.3889,-1.745
22.3917,-1.805
22.3944,-1.86
22.3972,-1.915
22.4,-1.97
22.4028,-2.02
22.4056,-2.065
22.4083,-2.13
22.4111,-2.17
22.4139,-2.195
22.4167,-2.21
22.4194,-2.235
22.4222,-2.255
22.425,-2.275
22.4278,-2.275
22.4306,-2.28
22.4333,-2.255
22.4361,-2.26
22.4389,-2.25
22.4417,-2.25
22.4444,-2.245
22.4472,-2.24
22.45,-2.23
22.4528,-2.23
22.4556,-2.205
22.4583,-2.185
22.4611,-2.145
22.4639,-2.085
22.4667,-2.04
22.4694,-2.01
22.4722,-1.945
22.475,-1.9
22.4778,-1.875
22.4806,-1.82
22.4833,-1.78
22.4861,-1.725
22.4889,-1.675
22.4917,-1.625
22.4944,-1.55
22.4972,-1.5
22.5,-1.425
22.5028,-1.37
22.5056,-1.33
22.5083,-1.29
22.5111,-1.245
22.5139,-1.225
22.5167,-1.195
22.5194,-1.17
22.5222,-1.165
22.525,-1.17
22.5278,-1.155
22.5306,-1.115
22.5333,-1.1
22.5361,-1.085
22.5389,-1.07
22.5417,-1.07
22.5444,-1.08
22.5472,-1.075
22.55,-1.115
22.5528,-1.11
22.5556,-1.115
22.5583,-1.105
22.5611,-1.105
22.5639,-1.085
22.5667,-1.07
22.5694,-1.05
22.5722,-1.045
22.575,-1.055
22.5778,-1.05
22.5806,-1.07
22.5833,-1.065
22.5861,-1.085
22.5889,-1.065
22.5917,-1.065
22.5944,-1.08
22.5972,-1.065
22.6,-1.06
22.6028,-1.03
22.6056,-1.035
22.6083,-1.02
22.6111,-1.02
22.6139,-1.045
22.6167,-1.05
22.6194,-1.045
22.6222,-1.055
22.625,-1.04
22.6278,-1.035
22.6306,-1.02
22.6333,-1.015
22.6361,-1.0
22.6389,-0.995
22.6417,-0.995
22.6444,-1.005
22.6472,-1.01
22.65,-1.01
22.6528,-1.015
22.6556,-1.03
22.6583,-1.03
22.6611,-1.005
22.6639,-1.0
22.6667,-0.995
22.6694,-0.975
22.6722,-0.965
22.675,-0.995
22.6778,-0.97
22.6806,-0.995
22.6833,-0.99
22.6861,-0.985
22.6889,-1.0
22.6917,-0.995
22.6944,-0.99
22.6972,-0.97
22.7,-0.97
22.7028,-0.97
22.7056,-0.96
22.7083,-0.96
22.7111,-0.96
22.7139,-0.965
22.7167,-0.97
22.7194,-0.98
22.7222,-0.99
22.725,-0.975
22.7278,-0.985
22.7306,-0.975
22.7333,-0.985
22.7361,-0.945
22.7389,-0.945
22.7417,-0.945
22.7444,-0.94
22.7472,-0.95
22.75,-0.95
22.7528,-0.97
22.7556,-0.965
22.7583,-0.96
22.7611,-0.97
22.7639,-0.955
22.7667,-0.955
22.7694,-0.935
22.7722,-0.925
22.775,-0.915
22.7778,-0.915
22.7806,-0.935
22.7833,-0.935
22.7861,-0.935
22.7889,-0.945
22.7917,-0.95
22.7944,-0.935
22.7972,-0.93
22.8,-0.915
22.8028,-0.93
22.8056,-0.915
22.8083,-0.92
22.8111,-0.92
22.8139,-0.925
22.8167,-0.93
22.8194,-0.925
22.8222,-0.945
22.825,-0.94
22.8278,-0.94
22.8306,-0.925
22.8333,-0.915
22.8361,-0.925
22.8389,-0.9
22.8417,-0.9
22.8444,-0.905
22.8472,-0.915
22.85,-0.915
22.8528,-0.925
22.8556,-0.93
22.8583,-0.94
22.8611,-0.925
22.8639,-0.925
22.8667,-0.925
22.8694,-0.91
22.8722,-0.9
22.875,-0.91
22.8778,-0.905
22.8806,-0.9
22.8833,-0.91
22.8861,-0.94
22.8889,-0.91
22.8917,-0.925
22.8944,-0.92
22.8972,-0.915
22.9,-0.905
22.9028,-0.9
22.9056,-0.885
22.9083,-0.9
22.9111,-0.9
22.9139,-0.905
22.9167,-0.915
22.9194,-0.91
22.9222,-0.91
22.925,-0.915
22.9278,-0.915
22.9306,-0.905
22.9333,-0.9
22.9361,-0.89
22.9389,-0.89
22.9417,-0.885
22.9444,-0.87
22.9472,-0.905
22.95,-0.905
22.9528,-0.9
22.9556,-0.91
22.9583,-0.915
22.9611,-0.905
22.9639,-0.895
22.9667,-0.89
22.9694,-0.88
22.9722,-0.885
22.975,-0.885
22.9778,-0.895
22.9806,-0.895
22.9833,-0.88
22.9861,-0.895
22.9889,-0.89
22.9917,-0.895
22.9944,-0.895
22.9972,-0.89
23.0,-0.885
23.0028,-0.885
23.0056,-0.87
23.0083,-0.885
23.0111,-0.87
23.0139,-0.875
23.0167,-0.885
23.0194,-0.885
23.0222,-0.9
23.025,-0.885
23.0278,-0.895
23.0306,-0.895
23.0333,-0.87
23.0361,-0.875
23.0389,-0.855
23.0417,-0.85
23.0444,-0.855
23.0472,-0.865
23.05,-0.88
23.0528,-0.885
23.0556,-0.88
23.0583,-0.88
23.0611,-0.885
23.0639,-0.875
23.0667,-0.86
23.0694,-0.855
23.0722,-0.845
23.075,-0.85
23.0778,-0.855
23.0806,-0.855
23.0833,-0.865
23.0861,-0.88
23.0889,-0.875
23.0917,-0.88
23.0944,-0.865
23.0972,-0.855
23.1,-0.865
23.1028,-0.84
23.1056,-0.82
23.1083,-0.825
23.1111,-0.825
23.1139,-0.84
23.1167,-0.83
23.1194,-0.865
23.1222,-0.86
23.125,-0.865
23.1278,-0.855
23.1306,-0.855
23.1333,-0.845
23.1361,-0.825
23.1389,-0.84
23.1417,-0.83
23.1444,-0.83
23.1472,-0.855
23.15,-0.85
23.1528,-0.86
23.1556,-0.86
23.1583,-0.86
23.1611,-0.86
23.1639,-0.835
23.1667,-0.835
23.1694,-0.825
23.1722,-0.82
23.175,-0.815
23.1778,-0.82
23.1806,-0.835
23.1833,-0.845
23.1861,-0.84
23.1889,-0.845
23.1917,-0.855
23.1944,-0.855
23.1972,-0.85
23.2,-0.83
23.2028,-0.845
23.2056,-0.825
23.2083,-0.82
23.2111,-0.835
23.2139,-0.82
23.2167,-0.845
23.2194,-0.845
23.2222,-0.845
23.225,-0.845
23.2278,-0.845
23.2306,-0.83
23.2333,-0.83
23.2361,-0.825
23.2389,-0.8
23.2417,-0.805
23.2444,-0.8
23.2472,-0.815
23.25,-0.825
23.2528,-0.84
23.2556,-0.835
23.2583,-0.835
23.2611,-0.835
23.2639,-0.82
23.2667,-0.81
23.2694,-0.81
23.2722,-0.8
23.275,-0.805
23.2778,-0.82
23.2806,-0.815
23.2833,-0.825
23.2861,-0.825
23.2889,-0.82
23.2917,-0.815
23.2944,-0.815
23.2972,-0.8
23.3,-0.78
23.3028,-0.785
23.3056,-0.775
23.3083,-0.765
23.3111,-0.76
23.3139,-0.75
23.3167,-0.735
23.3194,-0.73
23.3222,-0.705
23.325,-0.7
23.3278,-0.685
23.3306,-0.655
23.3333,-0.64
23.3361,-0.615
23.3389,-0.585
23.3417,-0.535
23.3444,-0.49
23.3472,-0.455
23.35,-0.43
23.3528,-0.43
23.3556,-0.435
23.3583,-0.455
23.3611,-0.465
23.3639,-0.46
23.3667,-0.46
23.3694,-0.445
23.3722,-0.445
23.375,-0.475
23.3778,-0.52
23.3806,-0.575
23.3833,-0.635
23.3861,-0.695
23.3889,-0.74
23.3917,-0.78
23.3944,-0.815
23.3972,-0.82
23.4,-0.815
23.4028,-0.79
23.4056,-0.785
23.4083,-0.79
23.4111,-0.775
23.4139,-0.82
23.4167,-0.805
23.4194,-0.82
23.4222,-0.82
23.425,-0.84
23.4278,-0.82
23.4306,-0.82
23.4333,-0.81
23.4361,-0.81
23.4389,-0.795
23.4417,-0.805
23.4444,-0.815
23.4472,-0.825
23.45,-0.825
23.4528,-0.835
23.4556,-0.85
23.4583,-0.87
23.4611,-0.915
23.4639,-0.91
23.4667,-0.86
23.4694,-0.77
23.4722,-0.635
23.475,-0.425
23.4778,-0.13
23.4806,0.21
23.4833,0.6
23.4861,0.955
23.4889,1.225
23.4917,1.375
23.4944,1.435
23.4972,1.395
23.5,1.26
23.5028,0.985
23.5056,0.56
23.5083,0.03
23.5111,-0.49
23.5139,-0.835
23.5167,-0.965
23.5194,-0.915
23.5222,-0.775
23.525,-0.635
23.5278,-0.55
23.5306,-0.55
23.5333,-0.59
23.5361,-0.66
23.5389,-0.715
23.5417,-0.76
23.5444,-0.775
23.5472,-0.805
23.55,-0.815
23.5528,-0.825
23.5556,-0.82
23.5583,-0.825
23.5611,-0.825
23.5639,-0.83
23.5667,-0.815
23.5694,-0.805
23.5722,-0.795
23.575,-0.8
23.5778,-0.795
23.5806,-0.82
23.5833,-0.825
23.5861,-0.83
23.5889,-0.845
23.5917,-0.84
23.5944,-0.845
23.5972,-0.835
23.6,-0.84
23.6028,-0.82
23.6056,-0.81
23.6083,-0.81
23.6111,-0.815
23.6139,-0.82
23.6167,-0.83
23.6194,-0.845
23.6222,-0.84
23.625,-0.85
23.6278,-0.845
23.6306,-0.85
23.6333,-0.85
23.6361,-0.84
23.6389,-0.82
23.6417,-0.825
23.6444,-0.82
23.6472,-0.83
23.65,-0.81
23.6528,-0.815
23.6556,-0.84
23.6583,-0.835
23.6611,-0.84
23.6639,-0.815
23.6667,-0.795
23.6694,-0.785
23.6722,-0.775
23.675,-0.775
23.6778,-0.765
23.6806,-0.765
23.6833,-0.785
23.6861,-0.785
23.6889,-0.775
23.6917,-0.77
23.6944,-0.755
23.6972,-0.74
23.7,-0.725
23.7028,-0.71
23.7056,-0.69
23.7083,-0.675
23.7111,-0.7
23.7139,-0.68
23.7167,-0.665
23.7194,-0.67
23.7222,-0.645
23.725,-0.64
23.7278,-0.62
23.7306,-0.6
23.7333,-0.585
23.7361,-0.55
23.7389,-0.54
23.7417,-0.515
23.7444,-0.515
23.7472,-0.49
23.75,-0.485
23.7528,-0.47
23.7556,-0.47
23.7583,-0.455
23.7611,-0.425
23.7639,-0.42
23.7667,-0.39
23.7694,-0.355
23.7722,-0.345
23.775,-0.33
23.7778,-0.305
23.7806,-0.305
23.7833,-0.295
23.7861,-0.28
23.7889,-0.265
23.7917,-0.275
23.7944,-0.24
23.7972,-0.23
23.8,-0.205
23.8028,-0.195
23.8056,-0.165
23.8083,-0.16
23.8111,-0.175
23.8139,-0.175
23.8167,-0.19
23.8194,-0.19
23.8222,-0.19
23.825,-0.215
23.8278,-0.22
23.8306,-0.225
23.8333,-0.23
23.8361,-0.245
23.8389,-0.255
23.8417,-0.295
23.8444,-0.315
23.8472,-0.355
23.85,-0.39
23.8528,-0.425
23.8556,-0.45
23.8583,-0.475
23.8611,-0.48
23.8639,-0.5
23.8667,-0.51
23.8694,-0.52
23.8722,-0.52
23.875,-0.525
23.8778,-0.56
23.8806,-0.585
23.8833,-0.605
23.8861,-0.61
23.8889,-0.62
23.8917,-0.615
23.8944,-0.635
23.8972,-0.61
23.9,-0.61
23.9028,-0.605
23.9056,-0.6
23.9083,-0.605
23.9111,-0.62
23.9139,-0.625
23.9167,-0.635
23.9194,-0.635
23.9222,-0.635
23.925,-0.65
23.9278,-0.625
23.9306,-0.61
23.9333,-0.61
23.9361,-0.6
23.9389,-0.585
23.9417,-0.575
23.9444,-0.61
23.9472,-0.595
23.95,-0.6
23.9528,-0.6
23.9556,-0.58
23.9583,-0.575
23.9611,-0.59
23.9639,-0.58
23.9667,-0.56
23.9694,-0.565
23.9722,-0.555
23.975,-0.57
23.9778,-0.585
23.9806,-0.575
23.9833,-0.58
23.9861,-0.57
23.9889,-0.54
23.9917,-0.435
23.9944,-0.315
23.9972,-0.16
24.0,-0.03
24.0028,0.13
24.0056,0.285
24.0083,0.45
24.0111,0.645
24.0139,0.845
24.0167,1.06
24.0194,1.29
24.0222,1.49
24.025,1.675
24.0278,1.845
24.0306,1.985
24.0333,2.11
24.0361,2.21
24.0389,2.27
24.0417,2.295
24.0444,2.295
24.0472,2.28
24.05,2.235
24.0528,2.16
24.0556,2.065
24.0583,1.985
24.0611,1.91
24.0639,1.885
24.0667,1.91
24.0694,1.94
24.0722,1.965
24.075,1.95
24.0778,1.875
24.0806,1.765
24.0833,1.615
24.0861,1.44
24.0889,1.245
24.0917,1.015
24.0944,0.735
24.0972,0.395
24.1,-0.01
24.1028,-0.35
24.1056,-0.61
24.1083,-0.78
24.1111,-0.825
24.1139,-0.815
24.1167,-0.815
24.1194,-0.825
24.1222,-0.85
24.125,-0.89
24.1278,-0.935
24.1306,-0.97
24.1333,-0.99
24.1361,-1.035
24.1389,-1.02
24.1417,-1.045
24.1444,-1.065
24.1472,-1.075
24.15,-1.105
24.1528,-1.125
24.1556,-1.135
24.1583,-1.16
24.1611,-1.17
