time,signal
0.0,-0.105
0.0028,-0.13
0.0056,-0.12
0.0083,-0.115
0.0111,-0.12
0.0139,-0.12
0.0167,-0.14
0.0194,-0.14
0.0222,-0.155
0.025,-0.13
0.0278,-0.13
0.0306,-0.14
0.0333,-0.145
0.0361,-0.16
0.0389,-0.165
0.0417,-0.155
0.0444,-0.135
0.0472,-0.125
0.05,-0.14
0.0528,-0.155
0.0556,-0.15
0.0583,-0.13
0.0611,-0.145
0.0639,-0.145
0.0667,-0.15
0.0694,-0.16
0.0722,-0.155
0.075,-0.145
0.0778,-0.145
0.0806,-0.145
0.0833,-0.155
0.0861,-0.16
0.0889,-0.165
0.0917,-0.15
0.0944,-0.13
0.0972,-0.155
0.1,-0.17
0.1028,-0.17
0.1056,-0.165
0.1083,-0.155
0.1111,-0.14
0.1139,-0.155
0.1167,-0.175
0.1194,-0.18
0.1222,-0.185
0.125,-0.185
0.1278,-0.18
0.1306,-0.17
0.1333,-0.185
0.1361,-0.185
0.1389,-0.185
0.1417,-0.16
0.1444,-0.155
0.1472,-0.155
0.15,-0.165
0.1528,-0.165
0.1556,-0.175
0.1583,-0.15
0.1611,-0.145
0.1639,-0.165
0.1667,-0.16
0.1694,-0.17
0.1722,-0.17
0.175,-0.15
0.1778,-0.155
0.1806,-0.165
0.1833,-0.17
0.1861,-0.18
0.1889,-0.18
0.1917,-0.165
0.1944,-0.155
0.1972,-0.16
0.2,-0.18
0.2028,-0.2
0.2056,-0.175
0.2083,-0.17
0.2111,-0.16
0.2139,-0.165
0.2167,-0.19
0.2194,-0.21
0.2222,-0.17
0.225,-0.155
0.2278,-0.135
0.2306,-0.15
0.2333,-0.14
0.2361,-0.145
0.2389,-0.135
0.2417,-0.115
0.2444,-0.125
0.2472,-0.12
0.25,-0.115
0.2528,-0.13
0.2556,-0.11
0.2583,-0.09
0.2611,-0.095
0.2639,-0.11
0.2667,-0.11
0.2694,-0.13
0.2722,-0.125
0.275,-0.125
0.2778,-0.135
0.2806,-0.135
0.2833,-0.155
0.2861,-0.17
0.2889,-0.185
0.2917,-0.16
0.2944,-0.145
0.2972,-0.145
0.3,-0.17
0.3028,-0.175
0.3056,-0.16
0.3083,-0.14
0.3111,-0.12
0.3139,-0.14
0.3167,-0.14
0.3194,-0.145
0.3222,-0.135
0.325,-0.14
0.3278,-0.145
0.3306,-0.17
0.3333,-0.19
0.3361,-0.215
0.3389,-0.21
0.3417,-0.2
0.3444,-0.185
0.3472,-0.19
0.35,-0.205
0.3528,-0.215
0.3556,-0.205
0.3583,-0.195
0.3611,-0.195
0.3639,-0.2
0.3667,-0.21
0.3694,-0.215
0.3722,-0.205
0.375,-0.185
0.3778,-0.18
0.3806,-0.18
0.3833,-0.19
0.3861,-0.195
0.3889,-0.195
0.3917,-0.185
0.3944,-0.185
0.3972,-0.19
0.4,-0.195
0.4028,-0.21
0.4056,-0.195
0.4083,-0.185
0.4111,-0.195
0.4139,-0.19
0.4167,-0.2
0.4194,-0.215
0.4222,-0.2
0.425,-0.175
0.4278,-0.165
0.4306,-0.15
0.4333,-0.16
0.4361,-0.145
0.4389,-0.11
0.4417,-0.065
0.4444,-0.07
0.4472,-0.125
0.45,-0.205
0.4528,-0.285
0.4556,-0.335
0.4583,-0.375
0.4611,-0.46
0.4639,-0.545
0.4667,-0.635
0.4694,-0.64
0.4722,-0.555
0.475,-0.43
0.4778,-0.285
0.4806,-0.155
0.4833,-0.055
0.4861,0.005
0.4889,-0.035
0.4917,-0.205
0.4944,-0.41
0.4972,-0.555
0.5,-0.615
0.5028,-0.59
0.5056,-0.52
0.5083,-0.39
0.5111,-0.295
0.5139,-0.235
0.5167,-0.225
0.5194,-0.22
0.5222,-0.18
0.525,-0.16
0.5278,-0.145
0.5306,-0.14
0.5333,-0.155
0.5361,-0.16
0.5389,-0.14
0.5417,-0.12
0.5444,-0.125
0.5472,-0.105
0.55,-0.12
0.5528,-0.12
0.5556,-0.105
0.5583,-0.095
0.5611,-0.09
0.5639,-0.09
0.5667,-0.11
0.5694,-0.125
0.5722,-0.12
0.575,-0.095
0.5778,-0.085
0.5806,-0.095
0.5833,-0.115
0.5861,-0.12
0.5889,-0.11
0.5917,-0.085
0.5944,-0.085
0.5972,-0.08
0.6,-0.095
0.6028,-0.11
0.6056,-0.1
0.6083,-0.075
0.6111,-0.07
0.6139,-0.09
0.6167,-0.095
0.6194,-0.1
0.6222,-0.09
0.625,-0.09
0.6278,-0.07
0.6306,-0.075
0.6333,-0.105
0.6361,-0.105
0.6389,-0.085
0.6417,-0.07
0.6444,-0.065
0.6472,-0.065
0.65,-0.09
0.6528,-0.095
0.6556,-0.085
0.6583,-0.08
0.6611,-0.045
0.6639,-0.05
0.6667,-0.07
0.6694,-0.065
0.6722,-0.05
0.675,-0.025
0.6778,-0.02
0.6806,-0.025
0.6833,-0.035
0.6861,-0.03
0.6889,-0.035
0.6917,-0.015
0.6944,-0.005
0.6972,0.0
0.7,0.0
0.7028,-0.01
0.7056,0.005
0.7083,0.02
0.7111,0.04
0.7139,0.03
0.7167,0.03
0.7194,0.02
0.7222,0.035
0.725,0.06
0.7278,0.07
0.7306,0.065
0.7333,0.065
0.7361,0.06
0.7389,0.07
0.7417,0.095
0.7444,0.105
0.7472,0.105
0.75,0.1
0.7528,0.09
0.7556,0.09
0.7583,0.105
0.7611,0.12
0.7639,0.1
0.7667,0.075
0.7694,0.06
0.7722,0.065
0.775,0.065
0.7778,0.075
0.7806,0.05
0.7833,0.025
0.7861,0.01
0.7889,0.015
0.7917,0.015
0.7944,0.0
0.7972,-0.005
0.8,-0.03
0.8028,-0.05
0.8056,-0.055
0.8083,-0.04
0.8111,-0.055
0.8139,-0.075
0.8167,-0.085
0.8194,-0.105
0.8222,-0.1
0.825,-0.095
0.8278,-0.1
0.8306,-0.115
0.8333,-0.115
0.8361,-0.15
0.8389,-0.14
0.8417,-0.115
0.8444,-0.11
0.8472,-0.13
0.85,-0.135
0.8528,-0.155
0.8556,-0.125
0.8583,-0.13
0.8611,-0.105
0.8639,-0.125
0.8667,-0.135
0.8694,-0.145
0.8722,-0.135
0.875,-0.13
0.8778,-0.115
0.8806,-0.115
0.8833,-0.135
0.8861,-0.14
0.8889,-0.125
0.8917,-0.125
0.8944,-0.12
0.8972,-0.135
0.9,-0.15
0.9028,-0.16
0.9056,-0.145
0.9083,-0.14
0.9111,-0.13
0.9139,-0.14
0.9167,-0.15
0.9194,-0.145
0.9222,-0.13
0.925,-0.11
0.9278,-0.11
0.9306,-0.115
0.9333,-0.135
0.9361,-0.15
0.9389,-0.14
0.9417,-0.14
0.9444,-0.12
0.9472,-0.115
0.95,-0.14
0.9528,-0.155
0.9556,-0.14
0.9583,-0.135
0.9611,-0.125
0.9639,-0.13
0.9667,-0.165
0.9694,-0.17
0.9722,-0.165
0.975,-0.145
0.9778,-0.145
0.9806,-0.15
0.9833,-0.16
0.9861,-0.165
0.9889,-0.16
0.9917,-0.145
0.9944,-0.14
0.9972,-0.16
1.0,-0.17
1.0028,-0.18
1.0056,-0.175
1.0083,-0.15
1.0111,-0.145
1.0139,-0.16
1.0167,-0.175
1.0194,-0.18
1.0222,-0.18
1.025,-0.16
1.0278,-0.155
1.0306,-0.175
1.0333,-0.195
1.0361,-0.185
1.0389,-0.19
1.0417,-0.17
1.0444,-0.165
1.0472,-0.175
1.05,-0.19
1.0528,-0.205
1.0556,-0.2
1.0583,-0.195
1.0611,-0.18
1.0639,-0.18
1.0667,-0.205
1.0694,-0.2
1.0722,-0.2
1.075,-0.175
1.0778,-0.165
1.0806,-0.17
1.0833,-0.195
1.0861,-0.205
1.0889,-0.195
1.0917,-0.19
1.0944,-0.18
1.0972,-0.185
1.1,-0.205
1.1028,-0.215
1.1056,-0.21
1.1083,-0.185
1.1111,-0.19
1.1139,-0.19
1.1167,-0.205
1.1194,-0.215
1.1222,-0.205
1.125,-0.19
1.1278,-0.18
1.1306,-0.19
1.1333,-0.2
1.1361,-0.205
1.1389,-0.205
1.1417,-0.19
1.1444,-0.185
1.1472,-0.185
1.15,-0.2
1.1528,-0.195
1.1556,-0.185
1.1583,-0.175
1.1611,-0.18
1.1639,-0.175
1.1667,-0.19
1.1694,-0.19
1.1722,-0.19
1.175,-0.185
1.1778,-0.18
1.1806,-0.19
1.1833,-0.195
1.1861,-0.215
1.1889,-0.195
1.1917,-0.185
1.1944,-0.175
1.1972,-0.18
1.2,-0.2
1.2028,-0.22
1.2056,-0.205
1.2083,-0.2
1.2111,-0.2
1.2139,-0.21
1.2167,-0.22
1.2194,-0.22
1.2222,-0.19
1.225,-0.18
1.2278,-0.16
1.2306,-0.17
1.2333,-0.19
1.2361,-0.2
1.2389,-0.17
1.2417,-0.155
1.2444,-0.145
1.2472,-0.14
1.25,-0.15
1.2528,-0.15
1.2556,-0.145
1.2583,-0.125
1.2611,-0.11
1.2639,-0.135
1.2667,-0.125
1.2694,-0.13
1.2722,-0.135
1.275,-0.125
1.2778,-0.095
1.2806,-0.11
1.2833,-0.125
1.2861,-0.125
1.2889,-0.12
1.2917,-0.105
1.2944,-0.115
1.2972,-0.125
1.3,-0.145
1.3028,-0.175
1.3056,-0.16
1.3083,-0.15
1.3111,-0.14
1.3139,-0.155
1.3167,-0.16
1.3194,-0.17
1.3222,-0.16
1.325,-0.15
1.3278,-0.145
1.3306,-0.155
1.3333,-0.155
1.3361,-0.165
1.3389,-0.15
1.3417,-0.125
1.3444,-0.115
1.3472,-0.14
1.35,-0.155
1.3528,-0.185
1.3556,-0.185
1.3583,-0.19
1.3611,-0.195
1.3639,-0.2
1.3667,-0.2
1.3694,-0.215
1.3722,-0.2
1.375,-0.195
1.3778,-0.19
1.3806,-0.19
1.3833,-0.185
1.3861,-0.195
1.3889,-0.2
1.3917,-0.185
1.3944,-0.175
1.3972,-0.195
1.4,-0.2
1.4028,-0.21
1.4056,-0.2
1.4083,-0.19
1.4111,-0.19
1.4139,-0.195
1.4167,-0.21
1.4194,-0.22
1.4222,-0.215
1.425,-0.205
1.4278,-0.185
1.4306,-0.2
1.4333,-0.215
1.4361,-0.215
1.4389,-0.21
1.4417,-0.19
1.4444,-0.185
1.4472,-0.19
1.45,-0.195
1.4528,-0.185
1.4556,-0.17
1.4583,-0.14
1.4611,-0.12
1.4639,-0.11
1.4667,-0.115
1.4694,-0.085
1.4722,-0.08
1.475,-0.12
1.4778,-0.215
1.4806,-0.285
1.4833,-0.345
1.4861,-0.4
1.4889,-0.455
1.4917,-0.52
1.4944,-0.565
1.4972,-0.57
1.5,-0.525
1.5028,-0.46
1.5056,-0.345
1.5083,-0.185
1.5111,-0.055
1.5139,0.0
1.5167,-0.015
1.5194,-0.155
1.5222,-0.345
1.525,-0.495
1.5278,-0.57
1.5306,-0.58
1.5333,-0.56
1.5361,-0.495
1.5389,-0.39
1.5417,-0.27
1.5444,-0.21
1.5472,-0.19
1.55,-0.19
1.5528,-0.18
1.5556,-0.17
1.5583,-0.135
1.5611,-0.135
1.5639,-0.14
1.5667,-0.145
1.5694,-0.15
1.5722,-0.14
1.575,-0.145
1.5778,-0.13
1.5806,-0.13
1.5833,-0.125
1.5861,-0.125
1.5889,-0.125
1.5917,-0.105
1.5944,-0.08
1.5972,-0.085
1.6,-0.09
1.6028,-0.105
1.6056,-0.105
1.6083,-0.085
1.6111,-0.075
1.6139,-0.075
1.6167,-0.09
1.6194,-0.11
1.6222,-0.09
1.625,-0.065
1.6278,-0.065
1.6306,-0.075
1.6333,-0.085
1.6361,-0.105
1.6389,-0.095
1.6417,-0.065
1.6444,-0.07
1.6472,-0.085
1.65,-0.1
1.6528,-0.105
1.6556,-0.085
1.6583,-0.065
1.6611,-0.055
1.6639,-0.065
1.6667,-0.07
1.6694,-0.08
1.6722,-0.06
1.675,-0.06
1.6778,-0.045
1.6806,-0.045
1.6833,-0.055
1.6861,-0.08
1.6889,-0.07
1.6917,-0.035
1.6944,-0.03
1.6972,-0.035
1.7,-0.055
1.7028,-0.06
1.7056,-0.035
1.7083,-0.025
1.7111,-0.035
1.7139,-0.035
1.7167,-0.045
1.7194,-0.035
1.7222,-0.03
1.725,-0.015
1.7278,0.0
1.7306,-0.02
1.7333,-0.03
1.7361,-0.04
1.7389,-0.015
1.7417,0.005
1.7444,0.015
1.7472,0.01
1.75,0.01
1.7528,0.015
1.7556,0.025
1.7583,0.045
1.7611,0.045
1.7639,0.03
1.7667,0.03
1.7694,0.045
1.7722,0.065
1.775,0.085
1.7778,0.09
1.7806,0.1
1.7833,0.085
1.7861,0.08
1.7889,0.1
1.7917,0.12
1.7944,0.13
1.7972,0.13
1.8,0.13
1.8028,0.11
1.8056,0.125
1.8083,0.135
1.8111,0.15
1.8139,0.135
1.8167,0.11
1.8194,0.125
1.8222,0.13
1.825,0.135
1.8278,0.145
1.8306,0.13
1.8333,0.105
1.8361,0.09
1.8389,0.075
1.8417,0.085
1.8444,0.09
1.8472,0.08
1.85,0.04
1.8528,0.035
1.8556,0.03
1.8583,0.025
1.8611,0.025
1.8639,0.005
1.8667,-0.025
1.8694,-0.04
1.8722,-0.04
1.875,-0.04
1.8778,-0.035
1.8806,-0.055
1.8833,-0.08
1.8861,-0.09
1.8889,-0.095
1.8917,-0.08
1.8944,-0.095
1.8972,-0.1
1.9,-0.13
1.9028,-0.125
1.9056,-0.125
1.9083,-0.12
1.9111,-0.11
1.9139,-0.115
1.9167,-0.145
1.9194,-0.135
1.9222,-0.125
1.925,-0.11
1.9278,-0.11
1.9306,-0.125
1.9333,-0.14
1.9361,-0.145
1.9389,-0.14
1.9417,-0.125
1.9444,-0.105
1.9472,-0.12
1.95,-0.135
1.9528,-0.135
1.9556,-0.135
1.9583,-0.13
1.9611,-0.12
1.9639,-0.125
1.9667,-0.14
1.9694,-0.15
1.9722,-0.145
1.975,-0.125
1.9778,-0.125
1.9806,-0.13
1.9833,-0.155
1.9861,-0.16
1.9889,-0.16
1.9917,-0.15
1.9944,-0.15
1.9972,-0.16
2.0,-0.165
2.0028,-0.17
2.0056,-0.16
2.0083,-0.145
2.0111,-0.12
2.0139,-0.135
2.0167,-0.15
2.0194,-0.15
2.0222,-0.14
2.025,-0.13
2.0278,-0.115
2.0306,-0.13
2.0333,-0.145
2.0361,-0.155
2.0389,-0.15
2.0417,-0.13
2.0444,-0.13
2.0472,-0.15
2.05,-0.145
2.0528,-0.16
2.0556,-0.155
2.0583,-0.135
2.0611,-0.13
2.0639,-0.13
2.0667,-0.14
2.0694,-0.15
2.0722,-0.15
2.075,-0.145
2.0778,-0.125
2.0806,-0.14
2.0833,-0.145
2.0861,-0.145
2.0889,-0.125
2.0917,-0.115
2.0944,-0.115
2.0972,-0.125
2.1,-0.14
2.1028,-0.15
2.1056,-0.145
2.1083,-0.125
2.1111,-0.12
2.1139,-0.125
2.1167,-0.135
2.1194,-0.15
2.1222,-0.14
2.125,-0.13
2.1278,-0.13
2.1306,-0.135
2.1333,-0.15
2.1361,-0.165
2.1389,-0.16
2.1417,-0.15
2.1444,-0.15
2.1472,-0.17
2.15,-0.18
2.1528,-0.185
2.1556,-0.185
2.1583,-0.17
2.1611,-0.165
2.1639,-0.165
2.1667,-0.19
2.1694,-0.19
2.1722,-0.175
2.175,-0.16
2.1778,-0.15
2.1806,-0.165
2.1833,-0.185
2.1861,-0.19
2.1889,-0.175
2.1917,-0.155
2.1944,-0.16
2.1972,-0.17
2.2,-0.19
2.2028,-0.195
2.2056,-0.175
2.2083,-0.175
2.2111,-0.165
2.2139,-0.175
2.2167,-0.19
2.2194,-0.195
2.2222,-0.185
2.225,-0.175
2.2278,-0.185
2.2306,-0.2
2.2333,-0.2
2.2361,-0.21
2.2389,-0.205
2.2417,-0.19
2.2444,-0.19
2.2472,-0.18
2.25,-0.2
2.2528,-0.215
2.2556,-0.195
2.2583,-0.175
2.2611,-0.165
2.2639,-0.185
2.2667,-0.195
2.2694,-0.205
2.2722,-0.195
2.275,-0.175
2.2778,-0.185
2.2806,-0.185
2.2833,-0.22
2.2861,-0.225
2.2889,-0.2
2.2917,-0.18
2.2944,-0.18
2.2972,-0.2
2.3,-0.2
2.3028,-0.205
2.3056,-0.195
2.3083,-0.185
2.3111,-0.2
2.3139,-0.205
2.3167,-0.205
2.3194,-0.225
2.3222,-0.215
2.325,-0.19
2.3278,-0.19
2.3306,-0.195
2.3333,-0.205
2.3361,-0.22
2.3389,-0.205
2.3417,-0.19
2.3444,-0.205
2.3472,-0.195
2.35,-0.195
2.3528,-0.2
2.3556,-0.195
2.3583,-0.175
2.3611,-0.16
2.3639,-0.17
2.3667,-0.18
2.3694,-0.17
2.3722,-0.155
2.375,-0.14
2.3778,-0.125
2.3806,-0.13
2.3833,-0.145
2.3861,-0.16
2.3889,-0.14
2.3917,-0.13
2.3944,-0.11
2.3972,-0.13
2.4,-0.13
2.4028,-0.12
2.4056,-0.12
2.4083,-0.115
2.4111,-0.11
2.4139,-0.115
2.4167,-0.125
2.4194,-0.135
2.4222,-0.135
2.425,-0.135
2.4278,-0.13
2.4306,-0.15
2.4333,-0.185
2.4361,-0.19
2.4389,-0.16
2.4417,-0.15
2.4444,-0.13
2.4472,-0.14
2.45,-0.17
2.4528,-0.17
2.4556,-0.15
2.4583,-0.135
2.4611,-0.115
2.4639,-0.135
2.4667,-0.15
2.4694,-0.18
2.4722,-0.17
2.475,-0.155
2.4778,-0.185
2.4806,-0.19
2.4833,-0.21
2.4861,-0.195
2.4889,-0.2
2.4917,-0.195
2.4944,-0.2
2.4972,-0.21
2.5,-0.22
2.5028,-0.215
2.5056,-0.215
2.5083,-0.185
2.5111,-0.2
2.5139,-0.19
2.5167,-0.21
2.5194,-0.205
2.5222,-0.205
2.525,-0.195
2.5278,-0.18
2.5306,-0.185
2.5333,-0.21
2.5361,-0.2
2.5389,-0.2
2.5417,-0.185
2.5444,-0.185
2.5472,-0.185
2.55,-0.21
2.5528,-0.21
2.5556,-0.2
2.5583,-0.195
2.5611,-0.19
2.5639,-0.19
2.5667,-0.215
2.5694,-0.215
2.5722,-0.19
2.575,-0.18
2.5778,-0.165
2.5806,-0.165
2.5833,-0.16
2.5861,-0.14
2.5889,-0.13
2.5917,-0.1
2.5944,-0.055
2.5972,-0.075
2.6,-0.11
2.6028,-0.185
2.6056,-0.255
2.6083,-0.295
2.6111,-0.335
2.6139,-0.43
2.6167,-0.535
2.6194,-0.615
2.6222,-0.635
2.625,-0.595
2.6278,-0.51
2.6306,-0.41
2.6333,-0.29
2.6361,-0.165
2.6389,-0.065
2.6417,-0.035
2.6444,-0.09
2.6472,-0.275
2.65,-0.49
2.6528,-0.61
2.6556,-0.63
2.6583,-0.585
2.6611,-0.525
2.6639,-0.445
2.6667,-0.345
2.6694,-0.26
2.6722,-0.2
2.675,-0.165
2.6778,-0.15
2.6806,-0.165
2.6833,-0.155
2.6861,-0.155
2.6889,-0.145
2.6917,-0.13
2.6944,-0.125
2.6972,-0.125
2.7,-0.14
2.7028,-0.14
2.7056,-0.13
2.7083,-0.105
2.7111,-0.095
2.7139,-0.11
2.7167,-0.125
2.7194,-0.125
2.7222,-0.11
2.725,-0.085
2.7278,-0.09
2.7306,-0.09
2.7333,-0.095
2.7361,-0.11
2.7389,-0.085
2.7417,-0.08
2.7444,-0.07
2.7472,-0.07
2.75,-0.085
2.7528,-0.085
2.7556,-0.08
2.7583,-0.075
2.7611,-0.07
2.7639,-0.09
2.7667,-0.09
2.7694,-0.1
2.7722,-0.08
2.775,-0.06
2.7778,-0.05
2.7806,-0.07
2.7833,-0.075
2.7861,-0.085
2.7889,-0.07
2.7917,-0.055
2.7944,-0.05
2.7972,-0.07
2.8,-0.08
2.8028,-0.1
2.8056,-0.07
2.8083,-0.065
2.8111,-0.065
2.8139,-0.045
2.8167,-0.065
2.8194,-0.055
2.8222,-0.05
2.825,-0.04
2.8278,-0.02
2.8306,-0.025
2.8333,-0.04
2.8361,-0.045
2.8389,-0.04
2.8417,-0.02
2.8444,-0.015
2.8472,-0.02
2.85,-0.035
2.8528,-0.035
2.8556,-0.015
2.8583,-0.005
2.8611,0.005
2.8639,0.0
2.8667,-0.015
2.8694,-0.005
2.8722,-0.005
2.875,0.02
2.8778,0.02
2.8806,0.02
2.8833,0.015
2.8861,0.025
2.8889,0.04
2.8917,0.06
2.8944,0.065
2.8972,0.055
2.9,0.045
2.9028,0.05
2.9056,0.06
2.9083,0.085
2.9111,0.095
2.9139,0.105
2.9167,0.09
2.9194,0.095
2.9222,0.115
2.925,0.115
2.9278,0.13
2.9306,0.13
2.9333,0.125
2.9361,0.12
2.9389,0.125
2.9417,0.145
2.9444,0.145
2.9472,0.13
2.95,0.12
2.9528,0.105
2.9556,0.095
2.9583,0.11
2.9611,0.11
2.9639,0.095
2.9667,0.065
2.9694,0.045
2.9722,0.05
2.975,0.05
2.9778,0.06
2.9806,0.03
2.9833,0.0
2.9861,-0.01
2.9889,-0.02
2.9917,-0.01
2.9944,-0.005
2.9972,-0.025
3.0,-0.045
3.0028,-0.07
3.0056,-0.06
3.0083,-0.05
3.0111,-0.05
3.0139,-0.07
3.0167,-0.085
3.0194,-0.1
3.0222,-0.095
3.025,-0.085
3.0278,-0.1
3.0306,-0.095
3.0333,-0.11
3.0361,-0.115
3.0389,-0.105
3.0417,-0.115
3.0444,-0.095
3.0472,-0.1
3.05,-0.105
3.0528,-0.135
3.0556,-0.115
3.0583,-0.095
3.0611,-0.09
3.0639,-0.095
3.0667,-0.11
3.0694,-0.12
3.0722,-0.11
3.075,-0.105
3.0778,-0.12
3.0806,-0.11
3.0833,-0.135
3.0861,-0.135
3.0889,-0.13
3.0917,-0.12
3.0944,-0.11
3.0972,-0.12
3.1,-0.145
3.1028,-0.16
3.1056,-0.135
3.1083,-0.115
3.1111,-0.115
3.1139,-0.135
3.1167,-0.15
3.1194,-0.145
3.1222,-0.14
3.125,-0.145
3.1278,-0.13
3.1306,-0.145
3.1333,-0.145
3.1361,-0.155
3.1389,-0.145
3.1417,-0.13
3.1444,-0.12
3.1472,-0.115
3.15,-0.13
3.1528,-0.13
3.1556,-0.125
3.1583,-0.13
3.1611,-0.13
3.1639,-0.135
3.1667,-0.13
3.1694,-0.135
3.1722,-0.145
3.175,-0.12
3.1778,-0.12
3.1806,-0.115
3.1833,-0.135
3.1861,-0.145
3.1889,-0.145
3.1917,-0.13
3.1944,-0.135
3.1972,-0.13
3.2,-0.155
3.2028,-0.165
3.2056,-0.15
3.2083,-0.145
3.2111,-0.125
3.2139,-0.14
3.2167,-0.16
3.2194,-0.155
3.2222,-0.15
3.225,-0.14
3.2278,-0.14
3.2306,-0.175
3.2333,-0.18
3.2361,-0.18
3.2389,-0.18
3.2417,-0.14
3.2444,-0.145
3.2472,-0.16
3.25,-0.185
3.2528,-0.195
3.2556,-0.195
3.2583,-0.18
3.2611,-0.18
3.2639,-0.185
3.2667,-0.195
3.2694,-0.2
3.2722,-0.2
3.275,-0.185
3.2778,-0.175
3.2806,-0.18
3.2833,-0.205
3.2861,-0.21
3.2889,-0.185
3.2917,-0.18
3.2944,-0.175
3.2972,-0.18
3.3,-0.21
3.3028,-0.21
3.3056,-0.195
3.3083,-0.185
3.3111,-0.19
3.3139,-0.2
3.3167,-0.22
3.3194,-0.215
3.3222,-0.225
3.325,-0.205
3.3278,-0.19
3.3306,-0.2
3.3333,-0.225
3.3361,-0.235
3.3389,-0.215
3.3417,-0.21
3.3444,-0.22
3.3472,-0.215
3.35,-0.215
3.3528,-0.215
3.3556,-0.195
3.3583,-0.19
3.3611,-0.185
3.3639,-0.2
3.3667,-0.215
3.3694,-0.22
3.3722,-0.215
3.375,-0.195
3.3778,-0.205
3.3806,-0.2
3.3833,-0.215
3.3861,-0.22
3.3889,-0.215
3.3917,-0.205
3.3944,-0.21
3.3972,-0.21
3.4,-0.225
3.4028,-0.23
3.4056,-0.23
3.4083,-0.2
3.4111,-0.215
3.4139,-0.21
3.4167,-0.22
3.4194,-0.23
3.4222,-0.21
3.425,-0.205
3.4278,-0.2
3.4306,-0.19
3.4333,-0.215
3.4361,-0.21
3.4389,-0.2
3.4417,-0.195
3.4444,-0.19
3.4472,-0.19
3.45,-0.23
3.4528,-0.21
3.4556,-0.2
3.4583,-0.17
3.4611,-0.17
3.4639,-0.17
3.4667,-0.175
3.4694,-0.195
3.4722,-0.185
3.475,-0.155
3.4778,-0.15
3.4806,-0.17
3.4833,-0.17
3.4861,-0.165
3.4889,-0.14
3.4917,-0.125
3.4944,-0.125
3.4972,-0.145
3.5,-0.165
3.5028,-0.17
3.5056,-0.15
3.5083,-0.145
3.5111,-0.145
3.5139,-0.175
3.5167,-0.185
3.5194,-0.205
3.5222,-0.2
3.525,-0.185
3.5278,-0.185
3.5306,-0.195
3.5333,-0.205
3.5361,-0.205
3.5389,-0.19
3.5417,-0.165
3.5444,-0.17
3.5472,-0.17
3.55,-0.175
3.5528,-0.185
3.5556,-0.175
3.5583,-0.175
3.5611,-0.175
3.5639,-0.2
3.5667,-0.235
3.5694,-0.25
3.5722,-0.25
3.575,-0.21
3.5778,-0.195
3.5806,-0.2
3.5833,-0.225
3.5861,-0.23
3.5889,-0.21
3.5917,-0.215
3.5944,-0.2
3.5972,-0.23
3.6,-0.235
3.6028,-0.245
3.6056,-0.22
3.6083,-0.215
3.6111,-0.22
3.6139,-0.225
3.6167,-0.22
3.6194,-0.225
3.6222,-0.22
3.625,-0.22
3.6278,-0.21
3.6306,-0.23
3.6333,-0.245
3.6361,-0.25
3.6389,-0.245
3.6417,-0.225
3.6444,-0.215
3.6472,-0.205
3.65,-0.225
3.6528,-0.225
3.6556,-0.205
3.6583,-0.19
3.6611,-0.18
3.6639,-0.2
3.6667,-0.2
3.6694,-0.18
3.6722,-0.155
3.675,-0.14
3.6778,-0.12
3.6806,-0.1
3.6833,-0.115
3.6861,-0.125
3.6889,-0.17
3.6917,-0.23
3.6944,-0.295
3.6972,-0.36
3.7,-0.44
3.7028,-0.54
3.7056,-0.61
3.7083,-0.665
3.7111,-0.66
3.7139,-0.62
3.7167,-0.55
3.7194,-0.43
3.7222,-0.29
3.725,-0.16
3.7278,-0.07
3.7306,-0.055
3.7333,-0.155
3.7361,-0.345
3.7389,-0.5
3.7417,-0.595
3.7444,-0.61
3.7472,-0.58
3.75,-0.535
3.7528,-0.46
3.7556,-0.325
3.7583,-0.235
3.7611,-0.195
3.7639,-0.195
3.7667,-0.195
3.7694,-0.18
3.7722,-0.165
3.775,-0.155
3.7778,-0.155
3.7806,-0.155
3.7833,-0.165
3.7861,-0.165
3.7889,-0.145
3.7917,-0.125
3.7944,-0.115
3.7972,-0.12
3.8,-0.13
3.8028,-0.12
3.8056,-0.1
3.8083,-0.08
3.8111,-0.085
3.8139,-0.095
3.8167,-0.095
3.8194,-0.09
3.8222,-0.095
3.825,-0.08
3.8278,-0.085
3.8306,-0.085
3.8333,-0.105
3.8361,-0.105
3.8389,-0.09
3.8417,-0.08
3.8444,-0.08
3.8472,-0.07
3.85,-0.09
3.8528,-0.085
3.8556,-0.09
3.8583,-0.085
3.8611,-0.08
3.8639,-0.075
3.8667,-0.09
3.8694,-0.09
3.8722,-0.07
3.875,-0.06
3.8778,-0.06
3.8806,-0.07
3.8833,-0.065
3.8861,-0.07
3.8889,-0.055
3.8917,-0.045
3.8944,-0.04
3.8972,-0.05
3.9,-0.05
3.9028,-0.045
3.9056,-0.05
3.9083,-0.02
3.9111,-0.025
3.9139,-0.025
3.9167,-0.04
3.9194,-0.045
3.9222,-0.03
3.925,-0.005
3.9278,-0.005
3.9306,-0.01
3.9333,-0.015
3.9361,-0.01
3.9389,0.0
3.9417,0.02
3.9444,0.035
3.9472,0.035
3.95,0.005
3.9528,0.025
3.9556,0.04
3.9583,0.06
3.9611,0.055
3.9639,0.05
3.9667,0.04
3.9694,0.05
3.9722,0.055
3.975,0.075
3.9778,0.08
3.9806,0.085
3.9833,0.075
3.9861,0.06
3.9889,0.09
3.9917,0.11
3.9944,0.105
3.9972,0.09
4.0,0.1
4.0028,0.1
4.0056,0.115
4.0083,0.125
4.0111,0.12
4.0139,0.1
4.0167,0.105
4.0194,0.105
4.0222,0.11
4.025,0.125
4.0278,0.115
4.0306,0.1
4.0333,0.08
4.0361,0.065
4.0389,0.075
4.0417,0.075
4.0444,0.065
4.0472,0.06
4.05,0.015
4.0528,-0.005
4.0556,0.0
4.0583,0.01
4.0611,0.005
4.0639,-0.025
4.0667,-0.045
4.0694,-0.06
4.0722,-0.06
4.075,-0.055
4.0778,-0.05
4.0806,-0.06
4.0833,-0.075
4.0861,-0.09
4.0889,-0.075
4.0917,-0.07
4.0944,-0.07
4.0972,-0.085
4.1,-0.11
4.1028,-0.115
4.1056,-0.115
4.1083,-0.09
4.1111,-0.105
4.1139,-0.125
4.1167,-0.125
4.1194,-0.13
4.1222,-0.13
4.125,-0.12
4.1278,-0.125
4.1306,-0.115
4.1333,-0.14
4.1361,-0.13
4.1389,-0.115
4.1417,-0.115
4.1444,-0.11
4.1472,-0.125
4.15,-0.14
4.1528,-0.135
4.1556,-0.12
4.1583,-0.12
4.1611,-0.115
4.1639,-0.13
4.1667,-0.14
4.1694,-0.145
4.1722,-0.13
4.175,-0.125
4.1778,-0.12
4.1806,-0.14
4.1833,-0.15
4.1861,-0.14
4.1889,-0.145
4.1917,-0.125
4.1944,-0.12
4.1972,-0.115
4.2,-0.135
4.2028,-0.14
4.2056,-0.115
4.2083,-0.12
4.2111,-0.115
4.2139,-0.12
4.2167,-0.125
4.2194,-0.13
4.2222,-0.13
4.225,-0.115
4.2278,-0.12
4.2306,-0.115
4.2333,-0.135
4.2361,-0.14
4.2389,-0.13
4.2417,-0.115
4.2444,-0.13
4.2472,-0.125
4.25,-0.14
4.2528,-0.145
4.2556,-0.145
4.2583,-0.15
4.2611,-0.14
4.2639,-0.15
4.2667,-0.17
4.2694,-0.17
4.2722,-0.155
4.275,-0.16
4.2778,-0.165
4.2806,-0.175
4.2833,-0.19
4.2861,-0.205
4.2889,-0.18
4.2917,-0.165
4.2944,-0.155
4.2972,-0.165
4.3,-0.175
4.3028,-0.185
4.3056,-0.175
4.3083,-0.175
4.3111,-0.165
4.3139,-0.17
4.3167,-0.17
4.3194,-0.2
4.3222,-0.185
4.325,-0.165
4.3278,-0.17
4.3306,-0.185
4.3333,-0.195
4.3361,-0.205
4.3389,-0.195
4.3417,-0.18
4.3444,-0.175
4.3472,-0.2
4.35,-0.21
4.3528,-0.21
4.3556,-0.205
4.3583,-0.19
4.3611,-0.19
4.3639,-0.205
4.3667,-0.205
4.3694,-0.235
4.3722,-0.215
4.375,-0.2
4.3778,-0.18
4.3806,-0.19
4.3833,-0.205
4.3861,-0.21
4.3889,-0.21
4.3917,-0.18
4.3944,-0.19
4.3972,-0.205
4.4,-0.205
4.4028,-0.205
4.4056,-0.205
4.4083,-0.185
4.4111,-0.18
4.4139,-0.19
4.4167,-0.215
4.4194,-0.215
4.4222,-0.2
4.425,-0.185
4.4278,-0.185
4.4306,-0.195
4.4333,-0.225
4.4361,-0.23
4.4389,-0.225
4.4417,-0.205
4.4444,-0.2
4.4472,-0.215
4.45,-0.215
4.4528,-0.215
4.4556,-0.215
4.4583,-0.185
4.4611,-0.185
4.4639,-0.185
4.4667,-0.21
4.4694,-0.215
4.4722,-0.205
4.475,-0.185
4.4778,-0.195
4.4806,-0.2
4.4833,-0.215
4.4861,-0.21
4.4889,-0.205
4.4917,-0.19
4.4944,-0.215
4.4972,-0.215
4.5,-0.225
4.5028,-0.22
4.5056,-0.225
4.5083,-0.21
4.5111,-0.205
4.5139,-0.21
4.5167,-0.225
4.5194,-0.23
4.5222,-0.215
4.525,-0.2
4.5278,-0.2
4.5306,-0.21
4.5333,-0.205
4.5361,-0.205
4.5389,-0.205
4.5417,-0.185
4.5444,-0.18
4.5472,-0.18
4.55,-0.205
4.5528,-0.2
4.5556,-0.18
4.5583,-0.16
4.5611,-0.145
4.5639,-0.145
4.5667,-0.16
4.5694,-0.145
4.5722,-0.135
4.575,-0.135
4.5778,-0.14
4.5806,-0.13
4.5833,-0.14
4.5861,-0.13
4.5889,-0.13
4.5917,-0.095
4.5944,-0.1
4.5972,-0.115
4.6,-0.14
4.6028,-0.16
4.6056,-0.155
4.6083,-0.14
4.6111,-0.165
4.6139,-0.175
4.6167,-0.19
4.6194,-0.2
4.6222,-0.185
4.625,-0.175
4.6278,-0.16
4.6306,-0.185
4.6333,-0.19
4.6361,-0.19
4.6389,-0.185
4.6417,-0.155
4.6444,-0.15
4.6472,-0.145
4.65,-0.155
4.6528,-0.155
4.6556,-0.14
4.6583,-0.13
4.6611,-0.15
4.6639,-0.17
4.6667,-0.205
4.6694,-0.225
4.6722,-0.21
4.675,-0.185
4.6778,-0.185
4.6806,-0.19
4.6833,-0.225
4.6861,-0.22
4.6889,-0.2
4.6917,-0.195
4.6944,-0.19
4.6972,-0.2
4.7,-0.215
4.7028,-0.215
4.7056,-0.195
4.7083,-0.195
4.7111,-0.19
4.7139,-0.195
4.7167,-0.225
4.7194,-0.205
4.7222,-0.19
4.725,-0.175
4.7278,-0.17
4.7306,-0.18
4.7333,-0.205
4.7361,-0.21
4.7389,-0.21
4.7417,-0.185
4.7444,-0.19
4.7472,-0.2
4.75,-0.215
4.7528,-0.215
4.7556,-0.205
4.7583,-0.175
4.7611,-0.16
4.7639,-0.17
4.7667,-0.175
4.7694,-0.16
4.7722,-0.12
4.775,-0.085
4.7778,-0.05
4.7806,-0.065
4.7833,-0.12
4.7861,-0.215
4.7889,-0.28
4.7917,-0.31
4.7944,-0.36
4.7972,-0.42
4.8,-0.51
4.8028,-0.58
4.8056,-0.57
4.8083,-0.495
4.8111,-0.39
4.8139,-0.285
4.8167,-0.16
4.8194,-0.04
4.8222,0.025
4.825,-0.01
4.8278,-0.175
4.8306,-0.4
4.8333,-0.56
4.8361,-0.63
4.8389,-0.595
4.8417,-0.52
4.8444,-0.41
4.8472,-0.295
4.85,-0.24
4.8528,-0.195
4.8556,-0.19
4.8583,-0.17
4.8611,-0.15
4.8639,-0.155
4.8667,-0.16
4.8694,-0.155
4.8722,-0.14
4.875,-0.12
4.8778,-0.105
4.8806,-0.11
4.8833,-0.12
4.8861,-0.11
4.8889,-0.115
4.8917,-0.085
4.8944,-0.08
4.8972,-0.09
4.9,-0.11
4.9028,-0.12
4.9056,-0.095
4.9083,-0.075
4.9111,-0.075
4.9139,-0.085
4.9167,-0.09
4.9194,-0.085
4.9222,-0.075
4.925,-0.07
4.9278,-0.065
4.9306,-0.075
4.9333,-0.09
4.9361,-0.08
4.9389,-0.07
4.9417,-0.06
4.9444,-0.05
4.9472,-0.05
4.95,-0.06
4.9528,-0.06
4.9556,-0.045
4.9583,-0.035
4.9611,-0.035
4.9639,-0.035
4.9667,-0.05
4.9694,-0.065
4.9722,-0.045
4.975,-0.03
4.9778,-0.02
4.9806,-0.035
4.9833,-0.045
4.9861,-0.035
4.9889,-0.02
4.9917,-0.01
4.9944,-0.01
4.9972,-0.025
5.0,-0.04
5.0028,-0.03
5.0056,-0.015
5.0083,0.0
5.0111,-0.005
5.0139,0.0
5.0167,0.0
5.0194,0.01
5.0222,0.015
5.025,0.045
5.0278,0.055
5.0306,0.035
5.0333,0.035
5.0361,0.035
5.0389,0.055
5.0417,0.05
5.0444,0.06
5.0472,0.05
5.05,0.045
5.0528,0.05
5.0556,0.055
5.0583,0.08
5.0611,0.085
5.0639,0.075
5.0667,0.06
5.0694,0.06
5.0722,0.07
5.075,0.1
5.0778,0.11
5.0806,0.11
5.0833,0.105
5.0861,0.12
5.0889,0.135
5.0917,0.165
5.0944,0.15
5.0972,0.165
5.1,0.14
5.1028,0.145
5.1056,0.155
5.1083,0.175
5.1111,0.18
5.1139,0.165
5.1167,0.15
5.1194,0.135
5.1222,0.145
5.125,0.16
5.1278,0.145
5.1306,0.13
5.1333,0.105
5.1361,0.095
5.1389,0.095
5.1417,0.095
5.1444,0.085
5.1472,0.06
5.15,0.045
5.1528,0.05
5.1556,0.035
5.1583,0.05
5.1611,0.04
5.1639,0.015
5.1667,-0.015
5.1694,-0.01
5.1722,-0.01
5.175,-0.01
5.1778,-0.02
5.1806,-0.03
5.1833,-0.05
5.1861,-0.055
5.1889,-0.035
5.1917,-0.03
5.1944,-0.04
5.1972,-0.06
5.2,-0.07
5.2028,-0.08
5.2056,-0.075
5.2083,-0.06
5.2111,-0.055
5.2139,-0.07
5.2167,-0.08
5.2194,-0.085
5.2222,-0.075
5.225,-0.06
5.2278,-0.06
5.2306,-0.07
5.2333,-0.08
5.2361,-0.095
5.2389,-0.075
5.2417,-0.05
5.2444,-0.06
5.2472,-0.08
5.25,-0.105
5.2528,-0.095
5.2556,-0.08
5.2583,-0.065
5.2611,-0.075
5.2639,-0.085
5.2667,-0.1
5.2694,-0.105
5.2722,-0.1
5.275,-0.095
5.2778,-0.08
5.2806,-0.1
5.2833,-0.105
5.2861,-0.105
5.2889,-0.1
5.2917,-0.085
5.2944,-0.09
5.2972,-0.08
5.3,-0.1
5.3028,-0.095
5.3056,-0.085
5.3083,-0.07
5.3111,-0.065
5.3139,-0.075
5.3167,-0.11
5.3194,-0.09
5.3222,-0.095
5.325,-0.075
5.3278,-0.085
5.3306,-0.08
5.3333,-0.1
5.3361,-0.105
5.3389,-0.085
5.3417,-0.08
5.3444,-0.075
5.3472,-0.08
5.35,-0.11
5.3528,-0.105
5.3556,-0.085
5.3583,-0.075
5.3611,-0.08
5.3639,-0.1
5.3667,-0.11
5.3694,-0.105
5.3722,-0.095
5.375,-0.08
5.3778,-0.075
5.3806,-0.08
5.3833,-0.1
5.3861,-0.095
5.3889,-0.105
5.3917,-0.08
5.3944,-0.08
5.3972,-0.1
5.4,-0.12
5.4028,-0.105
5.4056,-0.105
5.4083,-0.085
5.4111,-0.095
5.4139,-0.1
5.4167,-0.135
5.4194,-0.11
5.4222,-0.11
5.425,-0.095
5.4278,-0.11
5.4306,-0.12
5.4333,-0.13
5.4361,-0.135
5.4389,-0.125
5.4417,-0.115
5.4444,-0.11
5.4472,-0.115
5.45,-0.13
5.4528,-0.135
5.4556,-0.13
5.4583,-0.125
5.4611,-0.12
5.4639,-0.125
5.4667,-0.145
5.4694,-0.14
5.4722,-0.13
5.475,-0.125
5.4778,-0.13
5.4806,-0.14
5.4833,-0.145
5.4861,-0.15
5.4889,-0.125
5.4917,-0.125
5.4944,-0.13
5.4972,-0.135
5.5,-0.14
5.5028,-0.16
5.5056,-0.14
5.5083,-0.13
5.5111,-0.14
5.5139,-0.155
5.5167,-0.17
5.5194,-0.18
5.5222,-0.15
5.525,-0.15
5.5278,-0.145
5.5306,-0.17
5.5333,-0.175
5.5361,-0.175
5.5389,-0.17
5.5417,-0.145
5.5444,-0.15
5.5472,-0.145
5.55,-0.15
5.5528,-0.15
5.5556,-0.155
5.5583,-0.145
5.5611,-0.145
5.5639,-0.155
5.5667,-0.16
5.5694,-0.16
5.5722,-0.14
5.575,-0.145
5.5778,-0.135
5.5806,-0.15
5.5833,-0.165
5.5861,-0.16
5.5889,-0.15
5.5917,-0.145
5.5944,-0.145
5.5972,-0.155
5.6,-0.155
5.6028,-0.16
5.6056,-0.145
5.6083,-0.14
5.6111,-0.13
5.6139,-0.115
5.6167,-0.12
5.6194,-0.12
5.6222,-0.11
5.625,-0.08
5.6278,-0.09
5.6306,-0.1
5.6333,-0.105
5.6361,-0.11
5.6389,-0.075
5.6417,-0.06
5.6444,-0.055
5.6472,-0.08
5.65,-0.125
5.6528,-0.105
5.6556,-0.105
5.6583,-0.095
5.6611,-0.115
5.6639,-0.12
5.6667,-0.155
5.6694,-0.165
5.6722,-0.145
5.675,-0.13
5.6778,-0.125
5.6806,-0.135
5.6833,-0.15
5.6861,-0.145
5.6889,-0.145
5.6917,-0.12
5.6944,-0.11
5.6972,-0.1
5.7,-0.12
5.7028,-0.125
5.7056,-0.125
5.7083,-0.125
5.7111,-0.145
5.7139,-0.165
5.7167,-0.195
5.7194,-0.2
5.7222,-0.17
5.725,-0.165
5.7278,-0.165
5.7306,-0.185
5.7333,-0.195
5.7361,-0.19
5.7389,-0.185
5.7417,-0.18
5.7444,-0.175
5.7472,-0.19
5.75,-0.2
5.7528,-0.195
5.7556,-0.195
5.7583,-0.18
5.7611,-0.185
5.7639,-0.185
5.7667,-0.195
5.7694,-0.205
5.7722,-0.19
5.775,-0.155
5.7778,-0.185
5.7806,-0.175
5.7833,-0.195
5.7861,-0.185
5.7889,-0.185
5.7917,-0.175
5.7944,-0.16
5.7972,-0.165
5.8,-0.175
5.8028,-0.165
5.8056,-0.135
5.8083,-0.12
5.8111,-0.095
5.8139,-0.08
5.8167,-0.06
5.8194,-0.09
5.8222,-0.145
5.825,-0.185
5.8278,-0.255
5.8306,-0.31
5.8333,-0.39
5.8361,-0.485
5.8389,-0.545
5.8417,-0.575
5.8444,-0.525
5.8472,-0.435
5.85,-0.315
5.8528,-0.165
5.8556,-0.035
5.8583,0.025
5.8611,-0.01
5.8639,-0.205
5.8667,-0.42
5.8694,-0.55
5.8722,-0.56
5.875,-0.535
5.8778,-0.465
5.8806,-0.395
5.8833,-0.315
5.8861,-0.23
5.8889,-0.18
5.8917,-0.16
5.8944,-0.14
5.8972,-0.155
5.9,-0.15
5.9028,-0.155
5.9056,-0.14
5.9083,-0.115
5.9111,-0.11
5.9139,-0.115
5.9167,-0.12
5.9194,-0.115
5.9222,-0.09
5.925,-0.08
5.9278,-0.085
5.9306,-0.095
5.9333,-0.105
5.9361,-0.1
5.9389,-0.085
5.9417,-0.07
5.9444,-0.07
5.9472,-0.09
5.95,-0.095
5.9528,-0.09
5.9556,-0.08
5.9583,-0.065
5.9611,-0.06
5.9639,-0.065
5.9667,-0.085
5.9694,-0.08
5.9722,-0.07
5.975,-0.04
5.9778,-0.035
5.9806,-0.05
5.9833,-0.075
5.9861,-0.08
5.9889,-0.065
5.9917,-0.055
5.9944,-0.05
5.9972,-0.05
6.0,-0.075
6.0028,-0.07
6.0056,-0.07
6.0083,-0.035
6.0111,-0.04
6.0139,-0.05
6.0167,-0.075
6.0194,-0.07
6.0222,-0.065
6.025,-0.045
6.0278,-0.045
6.0306,-0.05
6.0333,-0.065
6.0361,-0.06
6.0389,-0.035
6.0417,-0.03
6.0444,-0.01
6.0472,-0.03
6.05,-0.03
6.0528,-0.015
6.0556,-0.015
6.0583,-0.015
6.0611,0.01
6.0639,-0.015
6.0667,-0.015
6.0694,-0.02
6.0722,0.01
6.075,0.025
6.0778,0.02
6.0806,0.015
6.0833,0.015
6.0861,0.015
6.0889,0.015
6.0917,0.035
6.0944,0.045
6.0972,0.04
6.1,0.045
6.1028,0.035
6.1056,0.065
6.1083,0.09
6.1111,0.09
6.1139,0.1
6.1167,0.075
6.1194,0.08
6.1222,0.1
6.125,0.105
6.1278,0.12
6.1306,0.1
6.1333,0.08
6.1361,0.1
6.1389,0.105
6.1417,0.12
6.1444,0.12
6.1472,0.095
6.15,0.085
6.1528,0.085
6.1556,0.085
6.1583,0.095
6.1611,0.08
6.1639,0.065
6.1667,0.045
6.1694,0.03
6.1722,0.035
6.175,0.04
6.1778,0.025
6.1806,0.005
6.1833,-0.015
6.1861,-0.025
6.1889,-0.025
6.1917,-0.02
6.1944,-0.035
6.1972,-0.055
6.2,-0.07
6.2028,-0.085
6.2056,-0.065
6.2083,-0.075
6.2111,-0.08
6.2139,-0.09
6.2167,-0.115
6.2194,-0.1
6.2222,-0.11
6.225,-0.1
6.2278,-0.1
6.2306,-0.115
6.2333,-0.125
6.2361,-0.12
6.2389,-0.105
6.2417,-0.095
6.2444,-0.11
6.2472,-0.11
6.25,-0.115
6.2528,-0.115
6.2556,-0.1
6.2583,-0.095
6.2611,-0.09
6.2639,-0.095
6.2667,-0.12
6.2694,-0.115
6.2722,-0.1
6.275,-0.1
6.2778,-0.09
6.2806,-0.105
6.2833,-0.125
6.2861,-0.125
6.2889,-0.105
6.2917,-0.095
6.2944,-0.105
6.2972,-0.115
6.3,-0.125
6.3028,-0.15
6.3056,-0.13
6.3083,-0.105
6.3111,-0.095
6.3139,-0.115
6.3167,-0.12
6.3194,-0.11
6.3222,-0.1
6.325,-0.085
6.3278,-0.09
6.3306,-0.095
6.3333,-0.105
6.3361,-0.11
6.3389,-0.115
6.3417,-0.095
6.3444,-0.105
6.3472,-0.105
6.35,-0.135
6.3528,-0.12
6.3556,-0.11
6.3583,-0.11
6.3611,-0.1
6.3639,-0.12
6.3667,-0.13
6.3694,-0.13
6.3722,-0.115
6.375,-0.11
6.3778,-0.105
6.3806,-0.14
6.3833,-0.145
6.3861,-0.16
6.3889,-0.17
6.3917,-0.14
6.3944,-0.135
6.3972,-0.14
6.4,-0.145
6.4028,-0.145
6.4056,-0.14
6.4083,-0.125
6.4111,-0.125
6.4139,-0.14
6.4167,-0.155
6.4194,-0.155
6.4222,-0.14
6.425,-0.14
6.4278,-0.135
6.4306,-0.15
6.4333,-0.16
6.4361,-0.165
6.4389,-0.155
6.4417,-0.145
6.4444,-0.145
6.4472,-0.16
6.45,-0.185
6.4528,-0.18
6.4556,-0.175
6.4583,-0.155
6.4611,-0.15
6.4639,-0.165
6.4667,-0.18
6.4694,-0.175
6.4722,-0.16
6.475,-0.15
6.4778,-0.15
6.4806,-0.15
6.4833,-0.17
6.4861,-0.175
6.4889,-0.165
6.4917,-0.16
6.4944,-0.15
6.4972,-0.16
6.5,-0.18
6.5028,-0.185
6.5056,-0.17
6.5083,-0.155
6.5111,-0.17
6.5139,-0.18
6.5167,-0.19
6.5194,-0.185
6.5222,-0.185
6.525,-0.17
6.5278,-0.18
6.5306,-0.195
6.5333,-0.21
6.5361,-0.22
6.5389,-0.19
6.5417,-0.17
6.5444,-0.17
6.5472,-0.175
6.55,-0.185
6.5528,-0.19
6.5556,-0.17
6.5583,-0.17
6.5611,-0.155
6.5639,-0.165
6.5667,-0.185
6.5694,-0.185
6.5722,-0.175
6.575,-0.165
6.5778,-0.155
6.5806,-0.175
6.5833,-0.18
6.5861,-0.185
6.5889,-0.185
6.5917,-0.175
6.5944,-0.16
6.5972,-0.17
6.6,-0.18
6.6028,-0.19
6.6056,-0.17
6.6083,-0.175
6.6111,-0.175
6.6139,-0.185
6.6167,-0.185
6.6194,-0.18
6.6222,-0.175
6.625,-0.145
6.6278,-0.145
6.6306,-0.16
6.6333,-0.17
6.6361,-0.17
6.6389,-0.155
6.6417,-0.14
6.6444,-0.135
6.6472,-0.15
6.65,-0.13
6.6528,-0.125
6.6556,-0.1
6.6583,-0.085
6.6611,-0.095
6.6639,-0.1
6.6667,-0.115
6.6694,-0.1
6.6722,-0.09
6.675,-0.07
6.6778,-0.065
6.6806,-0.075
6.6833,-0.09
6.6861,-0.105
6.6889,-0.1
6.6917,-0.1
6.6944,-0.095
6.6972,-0.105
6.7,-0.13
6.7028,-0.145
6.7056,-0.145
6.7083,-0.13
6.7111,-0.115
6.7139,-0.125
6.7167,-0.14
6.7194,-0.135
6.7222,-0.13
6.725,-0.12
6.7278,-0.135
6.7306,-0.135
6.7333,-0.135
6.7361,-0.155
6.7389,-0.125
6.7417,-0.095
6.7444,-0.1
6.7472,-0.125
6.75,-0.14
6.7528,-0.17
6.7556,-0.17
6.7583,-0.17
6.7611,-0.16
6.7639,-0.155
6.7667,-0.175
6.7694,-0.175
6.7722,-0.16
6.775,-0.135
6.7778,-0.135
6.7806,-0.145
6.7833,-0.155
6.7861,-0.16
6.7889,-0.15
6.7917,-0.135
6.7944,-0.14
6.7972,-0.155
6.8,-0.16
6.8028,-0.165
6.8056,-0.155
6.8083,-0.145
6.8111,-0.145
6.8139,-0.155
6.8167,-0.16
6.8194,-0.175
6.8222,-0.17
6.825,-0.15
6.8278,-0.145
6.8306,-0.16
6.8333,-0.17
6.8361,-0.15
6.8389,-0.135
6.8417,-0.11
6.8444,-0.11
6.8472,-0.105
6.85,-0.095
6.8528,-0.09
6.8556,-0.055
6.8583,-0.04
6.8611,-0.115
6.8639,-0.245
6.8667,-0.33
6.8694,-0.425
6.8722,-0.53
6.875,-0.585
6.8778,-0.56
6.8806,-0.43
6.8833,-0.22
6.8861,-0.01
6.8889,0.045
6.8917,-0.115
6.8944,-0.39
6.8972,-0.565
6.9,-0.575
6.9028,-0.48
6.9056,-0.325
6.9083,-0.185
6.9111,-0.115
6.9139,-0.12
6.9167,-0.115
6.9194,-0.095
6.9222,-0.09
6.925,-0.075
6.9278,-0.07
6.9306,-0.08
6.9333,-0.075
6.9361,-0.095
6.9389,-0.045
6.9417,-0.02
6.9444,-0.015
6.9472,-0.025
6.95,-0.045
6.9528,-0.025
6.9556,-0.03
6.9583,-0.005
6.9611,-0.015
6.9639,-0.01
6.9667,-0.03
6.9694,-0.02
6.9722,-0.01
6.975,0.02
6.9778,0.0
6.9806,-0.005
6.9833,-0.02
6.9861,-0.02
6.9889,0.0
6.9917,0.015
6.9944,0.02
6.9972,0.005
7.0,0.01
7.0028,0.01
7.0056,0.02
7.0083,0.04
7.0111,0.045
7.0139,0.04
7.0167,0.02
7.0194,0.03
7.0222,0.04
7.025,0.065
7.0278,0.055
7.0306,0.055
7.0333,0.05
7.0361,0.035
7.0389,0.06
7.0417,0.075
7.0444,0.07
7.0472,0.065
7.05,0.06
7.0528,0.07
7.0556,0.09
7.0583,0.105
7.0611,0.105
7.0639,0.095
7.0667,0.1
7.0694,0.11
7.0722,0.12
7.075,0.125
7.0778,0.14
7.0806,0.135
7.0833,0.13
7.0861,0.125
7.0889,0.155
7.0917,0.175
7.0944,0.185
7.0972,0.165
7.1,0.16
7.1028,0.17
7.1056,0.185
7.1083,0.195
7.1111,0.195
7.1139,0.195
7.1167,0.205
7.1194,0.205
7.1222,0.215
7.125,0.235
7.1278,0.24
7.1306,0.235
7.1333,0.23
7.1361,0.225
7.1389,0.24
7.1417,0.26
7.1444,0.25
7.1472,0.25
7.15,0.23
7.1528,0.215
7.1556,0.225
7.1583,0.235
7.1611,0.23
7.1639,0.22
7.1667,0.2
7.1694,0.185
7.1722,0.195
7.175,0.205
7.1778,0.195
7.1806,0.17
7.1833,0.11
7.1861,0.105
7.1889,0.105
7.1917,0.135
7.1944,0.11
7.1972,0.09
7.2,0.075
7.2028,0.07
7.2056,0.065
7.2083,0.07
7.2111,0.065
7.2139,0.045
7.2167,0.02
7.2194,0.03
7.2222,0.02
7.225,0.04
7.2278,0.03
7.2306,0.005
7.2333,0.0
7.2361,0.0
7.2389,0.015
7.2417,0.02
7.2444,0.025
7.2472,0.02
7.25,-0.01
7.2528,0.005
7.2556,0.015
7.2583,0.035
7.2611,0.015
7.2639,0.0
7.2667,0.0
7.2694,-0.005
7.2722,0.01
7.275,0.025
7.2778,0.025
7.2806,0.01
7.2833,-0.005
7.2861,-0.005
7.2889,0.0
7.2917,0.025
7.2944,0.02
7.2972,-0.02
7.3,-0.015
7.3028,-0.035
7.3056,-0.025
7.3083,-0.005
7.3111,0.0
7.3139,-0.005
7.3167,-0.02
7.3194,-0.015
7.3222,-0.005
7.325,0.015
7.3278,0.01
7.3306,-0.005
7.3333,-0.005
7.3361,-0.015
7.3389,0.005
7.3417,0.01
7.3444,0.02
7.3472,0.0
7.35,0.0
7.3528,-0.005
7.3556,0.0
7.3583,0.02
7.3611,0.025
7.3639,0.0
7.3667,0.005
7.3694,-0.005
7.3722,-0.005
7.375,0.01
7.3778,0.0
7.3806,0.005
7.3833,-0.01
7.3861,-0.005
7.3889,0.0
7.3917,0.02
7.3944,0.025
7.3972,0.02
7.4,0.0
7.4028,-0.005
7.4056,0.01
7.4083,0.025
7.4111,0.025
7.4139,-0.005
7.4167,-0.015
7.4194,-0.01
7.4222,0.005
7.425,0.0
7.4278,0.0
7.4306,-0.015
7.4333,-0.025
7.4361,-0.025
7.4389,-0.02
7.4417,-0.01
7.4444,-0.015
7.4472,-0.025
7.45,-0.025
7.4528,-0.025
7.4556,-0.025
7.4583,-0.02
7.4611,-0.03
7.4639,-0.03
7.4667,-0.04
7.4694,-0.05
7.4722,-0.04
7.475,-0.03
7.4778,-0.025
7.4806,-0.04
7.4833,-0.035
7.4861,-0.035
7.4889,-0.03
7.4917,-0.01
7.4944,-0.015
7.4972,-0.05
7.5,-0.035
7.5028,-0.045
7.5056,-0.03
7.5083,-0.015
7.5111,-0.035
7.5139,-0.04
7.5167,-0.045
7.5194,-0.07
7.5222,-0.065
7.525,-0.03
7.5278,-0.04
7.5306,-0.05
7.5333,-0.055
7.5361,-0.07
7.5389,-0.06
7.5417,-0.05
7.5444,-0.06
7.5472,-0.06
7.55,-0.075
7.5528,-0.095
7.5556,-0.06
7.5583,-0.05
7.5611,-0.06
7.5639,-0.08
7.5667,-0.07
7.5694,-0.07
7.5722,-0.065
7.575,-0.055
7.5778,-0.045
7.5806,-0.07
7.5833,-0.08
7.5861,-0.08
7.5889,-0.06
7.5917,-0.045
7.5944,-0.06
7.5972,-0.075
7.6,-0.085
7.6028,-0.095
7.6056,-0.08
7.6083,-0.065
7.6111,-0.055
7.6139,-0.065
7.6167,-0.085
7.6194,-0.08
7.6222,-0.08
7.625,-0.075
7.6278,-0.085
7.6306,-0.085
7.6333,-0.095
7.6361,-0.095
7.6389,-0.085
7.6417,-0.07
7.6444,-0.075
7.6472,-0.08
7.65,-0.085
7.6528,-0.085
7.6556,-0.07
7.6583,-0.065
7.6611,-0.05
7.6639,-0.065
7.6667,-0.075
7.6694,-0.08
7.6722,-0.085
7.675,-0.065
7.6778,-0.055
7.6806,-0.07
7.6833,-0.09
7.6861,-0.08
7.6889,-0.08
7.6917,-0.06
7.6944,-0.065
7.6972,-0.07
7.7,-0.08
7.7028,-0.085
7.7056,-0.075
7.7083,-0.06
7.7111,-0.05
7.7139,-0.03
7.7167,-0.03
7.7194,-0.02
7.7222,0.0
7.725,0.01
7.7278,-0.005
7.7306,0.0
7.7333,-0.025
7.7361,-0.02
7.7389,-0.005
7.7417,0.015
7.7444,0.02
7.7472,0.015
7.75,0.01
7.7528,0.005
7.7556,-0.005
7.7583,-0.01
7.7611,-0.01
7.7639,-0.04
7.7667,-0.06
7.7694,-0.06
7.7722,-0.065
7.775,-0.06
7.7778,-0.06
7.7806,-0.07
7.7833,-0.055
7.7861,-0.06
7.7889,-0.04
7.7917,-0.025
7.7944,-0.04
7.7972,-0.06
7.8,-0.055
7.8028,-0.045
7.8056,-0.025
7.8083,-0.01
7.8111,-0.02
7.8139,-0.03
7.8167,-0.04
7.8194,-0.06
7.8222,-0.065
7.825,-0.07
7.8278,-0.085
7.8306,-0.095
7.8333,-0.11
7.8361,-0.095
7.8389,-0.07
7.8417,-0.06
7.8444,-0.065
7.8472,-0.1
7.85,-0.105
7.8528,-0.115
7.8556,-0.1
7.8583,-0.085
7.8611,-0.075
7.8639,-0.09
7.8667,-0.11
7.8694,-0.12
7.8722,-0.09
7.875,-0.075
7.8778,-0.075
7.8806,-0.075
7.8833,-0.09
7.8861,-0.085
7.8889,-0.08
7.8917,-0.07
7.8944,-0.075
7.8972,-0.075
7.9,-0.095
7.9028,-0.095
7.9056,-0.07
7.9083,-0.07
7.9111,-0.07
7.9139,-0.075
7.9167,-0.09
7.9194,-0.085
7.9222,-0.095
7.925,-0.075
7.9278,-0.06
7.9306,-0.06
7.9333,-0.055
7.9361,-0.045
7.9389,-0.005
7.9417,0.035
7.9444,0.02
7.9472,-0.035
7.95,-0.125
7.9528,-0.185
7.9556,-0.215
7.9583,-0.245
7.9611,-0.33
7.9639,-0.43
7.9667,-0.495
7.9694,-0.465
7.9722,-0.41
7.975,-0.31
7.9778,-0.195
7.9806,-0.065
7.9833,0.025
7.9861,0.075
7.9889,0.11
7.9917,0.025
7.9944,-0.155
7.9972,-0.35
8.0,-0.48
8.0028,-0.51
8.0056,-0.5
8.0083,-0.43
8.0111,-0.35
8.0139,-0.265
8.0167,-0.18
8.0194,-0.12
8.0222,-0.1
8.025,-0.055
8.0278,-0.045
8.0306,-0.045
8.0333,-0.05
8.0361,-0.045
8.0389,-0.04
8.0417,-0.01
8.0444,-0.005
8.0472,-0.02
8.05,-0.02
8.0528,-0.03
8.0556,0.0
8.0583,0.015
8.0611,0.035
8.0639,0.015
8.0667,0.01
8.0694,0.01
8.0722,0.015
8.075,0.035
8.0778,0.025
8.0806,0.015
8.0833,0.015
8.0861,0.02
8.0889,0.025
8.0917,0.05
8.0944,0.035
8.0972,0.04
8.1,0.025
8.1028,0.03
8.1056,0.05
8.1083,0.05
8.1111,0.055
8.1139,0.05
8.1167,0.045
8.1194,0.045
8.1222,0.06
8.125,0.075
8.1278,0.07
8.1306,0.055
8.1333,0.055
8.1361,0.06
8.1389,0.065
8.1417,0.075
8.1444,0.065
8.1472,0.06
8.15,0.06
8.1528,0.06
8.1556,0.06
8.1583,0.085
8.1611,0.07
8.1639,0.085
8.1667,0.06
8.1694,0.07
8.1722,0.08
8.175,0.1
8.1778,0.09
8.1806,0.075
8.1833,0.07
8.1861,0.08
8.1889,0.095
8.1917,0.125
8.1944,0.12
8.1972,0.095
8.2,0.1
8.2028,0.09
8.2056,0.105
8.2083,0.14
8.2111,0.135
8.2139,0.125
8.2167,0.115
8.2194,0.12
8.2222,0.135
8.225,0.16
8.2278,0.155
8.2306,0.145
8.2333,0.14
8.2361,0.14
8.2389,0.145
8.2417,0.175
8.2444,0.17
8.2472,0.165
8.25,0.17
8.2528,0.18
8.2556,0.19
8.2583,0.21
8.2611,0.23
8.2639,0.22
8.2667,0.195
8.2694,0.21
8.2722,0.225
8.275,0.27
8.2778,0.26
8.2806,0.25
8.2833,0.23
8.2861,0.25
8.2889,0.255
8.2917,0.28
8.2944,0.265
8.2972,0.26
8.3,0.25
8.3028,0.245
8.3056,0.26
8.3083,0.265
8.3111,0.245
8.3139,0.225
8.3167,0.225
8.3194,0.205
8.3222,0.2
8.325,0.205
8.3278,0.185
8.3306,0.16
8.3333,0.145
8.3361,0.12
8.3389,0.135
8.3417,0.12
8.3444,0.11
8.3472,0.095
8.35,0.075
8.3528,0.06
8.3556,0.07
8.3583,0.08
8.3611,0.075
8.3639,0.055
8.3667,0.025
8.3694,0.03
8.3722,0.04
8.375,0.045
8.3778,0.035
8.3806,0.03
8.3833,0.0
8.3861,0.015
8.3889,0.02
8.3917,0.015
8.3944,0.025
8.3972,0.005
8.4,-0.005
8.4028,-0.02
8.4056,0.01
8.4083,0.015
8.4111,0.015
8.4139,-0.01
8.4167,-0.015
8.4194,-0.015
8.4222,-0.01
8.425,-0.005
8.4278,0.0
8.4306,-0.02
8.4333,-0.025
8.4361,-0.015
8.4389,-0.015
8.4417,-0.005
8.4444,0.005
8.4472,-0.01
8.45,-0.03
8.4528,-0.03
8.4556,-0.02
8.4583,-0.005
8.4611,-0.015
8.4639,-0.015
8.4667,-0.04
8.4694,-0.035
8.4722,-0.01
8.475,-0.01
8.4778,-0.01
8.4806,-0.025
8.4833,-0.045
8.4861,-0.035
8.4889,-0.03
8.4917,-0.01
8.4944,-0.02
8.4972,-0.025
8.5,-0.04
8.5028,-0.04
8.5056,-0.01
8.5083,-0.01
8.5111,-0.015
8.5139,-0.025
8.5167,-0.04
8.5194,-0.03
8.5222,-0.02
8.525,-0.005
8.5278,-0.01
8.5306,-0.03
8.5333,-0.035
8.5361,-0.03
8.5389,-0.03
8.5417,-0.005
8.5444,-0.005
8.5472,-0.02
8.55,-0.03
8.5528,-0.03
8.5556,-0.025
8.5583,-0.015
8.5611,-0.025
8.5639,-0.035
8.5667,-0.045
8.5694,-0.05
8.5722,-0.04
8.575,-0.03
8.5778,-0.025
8.5806,-0.05
8.5833,-0.055
8.5861,-0.065
8.5889,-0.055
8.5917,-0.07
8.5944,-0.055
8.5972,-0.065
8.6,-0.08
8.6028,-0.075
8.6056,-0.065
8.6083,-0.04
8.6111,-0.05
8.6139,-0.06
8.6167,-0.08
8.6194,-0.075
8.6222,-0.065
8.625,-0.05
8.6278,-0.07
8.6306,-0.08
8.6333,-0.085
8.6361,-0.085
8.6389,-0.08
8.6417,-0.06
8.6444,-0.06
8.6472,-0.08
8.65,-0.085
8.6528,-0.095
8.6556,-0.075
8.6583,-0.08
8.6611,-0.085
8.6639,-0.1
8.6667,-0.115
8.6694,-0.11
8.6722,-0.115
8.675,-0.085
8.6778,-0.08
8.6806,-0.105
8.6833,-0.125
8.6861,-0.105
8.6889,-0.1
8.6917,-0.085
8.6944,-0.085
8.6972,-0.095
8.7,-0.11
8.7028,-0.13
8.7056,-0.11
8.7083,-0.095
8.7111,-0.1
8.7139,-0.115
8.7167,-0.125
8.7194,-0.125
8.7222,-0.105
8.725,-0.09
8.7278,-0.1
8.7306,-0.115
8.7333,-0.115
8.7361,-0.125
8.7389,-0.1
8.7417,-0.08
8.7444,-0.095
8.7472,-0.105
8.75,-0.12
8.7528,-0.12
8.7556,-0.1
8.7583,-0.09
8.7611,-0.105
8.7639,-0.105
8.7667,-0.12
8.7694,-0.135
8.7722,-0.115
8.775,-0.115
8.7778,-0.1
8.7806,-0.105
8.7833,-0.115
8.7861,-0.12
8.7889,-0.115
8.7917,-0.09
8.7944,-0.105
8.7972,-0.105
8.8,-0.115
8.8028,-0.11
8.8056,-0.105
8.8083,-0.095
8.8111,-0.095
8.8139,-0.095
8.8167,-0.105
8.8194,-0.1
8.8222,-0.09
8.825,-0.07
8.8278,-0.065
8.8306,-0.065
8.8333,-0.085
8.8361,-0.08
8.8389,-0.065
8.8417,-0.065
8.8444,-0.06
8.8472,-0.07
8.85,-0.075
8.8528,-0.07
8.8556,-0.045
8.8583,-0.025
8.8611,-0.05
8.8639,-0.06
8.8667,-0.075
8.8694,-0.07
8.8722,-0.05
8.875,-0.05
8.8778,-0.07
8.8806,-0.085
8.8833,-0.115
8.8861,-0.11
8.8889,-0.095
8.8917,-0.085
8.8944,-0.095
8.8972,-0.11
8.9,-0.095
8.9028,-0.095
8.9056,-0.105
8.9083,-0.08
8.9111,-0.08
8.9139,-0.085
8.9167,-0.085
8.9194,-0.085
8.9222,-0.065
8.925,-0.06
8.9278,-0.07
8.9306,-0.09
8.9333,-0.12
8.9361,-0.135
8.9389,-0.135
8.9417,-0.14
8.9444,-0.145
8.9472,-0.14
8.95,-0.145
8.9528,-0.135
8.9556,-0.135
8.9583,-0.125
8.9611,-0.125
8.9639,-0.14
8.9667,-0.15
8.9694,-0.15
8.9722,-0.13
8.975,-0.135
8.9778,-0.14
8.9806,-0.135
8.9833,-0.165
8.9861,-0.16
8.9889,-0.14
8.9917,-0.135
8.9944,-0.125
8.9972,-0.15
9.0,-0.16
9.0028,-0.175
9.0056,-0.15
9.0083,-0.14
9.0111,-0.145
9.0139,-0.15
9.0167,-0.155
9.0194,-0.17
9.0222,-0.145
9.025,-0.13
9.0278,-0.13
9.0306,-0.13
9.0333,-0.145
9.0361,-0.15
9.0389,-0.11
9.0417,-0.095
9.0444,-0.07
9.0472,-0.07
9.05,-0.055
9.0528,-0.03
9.0556,-0.01
9.0583,-0.02
9.0611,-0.09
9.0639,-0.18
9.0667,-0.23
9.0694,-0.29
9.0722,-0.345
9.075,-0.415
9.0778,-0.49
9.0806,-0.545
9.0833,-0.545
9.0861,-0.46
9.0889,-0.35
9.0917,-0.2
9.0944,-0.055
9.0972,0.055
9.1,0.075
9.1028,0.005
9.1056,-0.19
9.1083,-0.38
9.1111,-0.49
9.1139,-0.505
9.1167,-0.475
9.1194,-0.4
9.1222,-0.28
9.125,-0.18
9.1278,-0.14
9.1306,-0.14
9.1333,-0.145
9.1361,-0.13
9.1389,-0.095
9.1417,-0.1
9.1444,-0.095
9.1472,-0.105
9.15,-0.115
9.1528,-0.1
9.1556,-0.085
9.1583,-0.065
9.1611,-0.075
9.1639,-0.08
9.1667,-0.095
9.1694,-0.08
9.1722,-0.055
9.175,-0.05
9.1778,-0.055
9.1806,-0.065
9.1833,-0.065
9.1861,-0.06
9.1889,-0.045
9.1917,-0.035
9.1944,-0.035
9.1972,-0.055
9.2,-0.075
9.2028,-0.07
9.2056,-0.05
9.2083,-0.045
9.2111,-0.03
9.2139,-0.05
9.2167,-0.065
9.2194,-0.06
9.2222,-0.05
9.225,-0.04
9.2278,-0.035
9.2306,-0.055
9.2333,-0.06
9.2361,-0.065
9.2389,-0.07
9.2417,-0.035
9.2444,-0.03
9.2472,-0.055
9.25,-0.055
9.2528,-0.055
9.2556,-0.025
9.2583,-0.02
9.2611,-0.01
9.2639,-0.02
9.2667,-0.02
9.2694,-0.015
9.2722,-0.015
9.275,-0.01
9.2778,0.015
9.2806,0.005
9.2833,-0.01
9.2861,-0.015
9.2889,0.015
9.2917,0.015
9.2944,0.01
9.2972,0.015
9.3,0.005
9.3028,0.01
9.3056,0.015
9.3083,0.04
9.3111,0.045
9.3139,0.035
9.3167,0.025
9.3194,0.03
9.3222,0.06
9.325,0.075
9.3278,0.06
9.3306,0.07
9.3333,0.06
9.3361,0.055
9.3389,0.08
9.3417,0.1
9.3444,0.11
9.3472,0.09
9.35,0.09
9.3528,0.095
9.3556,0.115
9.3583,0.135
9.3611,0.12
9.3639,0.09
9.3667,0.105
9.3694,0.095
9.3722,0.125
9.375,0.14
9.3778,0.14
9.3806,0.125
9.3833,0.12
9.3861,0.13
9.3889,0.145
9.3917,0.145
9.3944,0.145
9.3972,0.135
9.4,0.125
9.4028,0.115
9.4056,0.1
9.4083,0.13
9.4111,0.11
9.4139,0.095
9.4167,0.07
9.4194,0.06
9.4222,0.065
9.425,0.07
9.4278,0.05
9.4306,0.035
9.4333,0.015
9.4361,0.0
9.4389,-0.01
9.4417,-0.01
9.4444,0.0
9.4472,-0.025
9.45,-0.05
9.4528,-0.05
9.4556,-0.05
9.4583,-0.04
9.4611,-0.045
9.4639,-0.07
9.4667,-0.06
9.4694,-0.08
9.4722,-0.05
9.475,-0.045
9.4778,-0.04
9.4806,-0.06
9.4833,-0.08
9.4861,-0.07
9.4889,-0.055
9.4917,-0.055
9.4944,-0.04
9.4972,-0.065
9.5,-0.08
9.5028,-0.095
9.5056,-0.07
9.5083,-0.065
9.5111,-0.055
9.5139,-0.075
9.5167,-0.095
9.5194,-0.105
9.5222,-0.075
9.525,-0.075
9.5278,-0.07
9.5306,-0.085
9.5333,-0.095
9.5361,-0.08
9.5389,-0.065
9.5417,-0.07
9.5444,-0.06
9.5472,-0.065
9.55,-0.08
9.5528,-0.085
9.5556,-0.06
9.5583,-0.04
9.5611,-0.055
9.5639,-0.075
9.5667,-0.1
9.5694,-0.095
9.5722,-0.07
9.575,-0.055
9.5778,-0.05
9.5806,-0.055
9.5833,-0.08
9.5861,-0.07
9.5889,-0.055
9.5917,-0.05
9.5944,-0.065
9.5972,-0.065
9.6,-0.09
9.6028,-0.075
9.6056,-0.065
9.6083,-0.065
9.6111,-0.07
9.6139,-0.055
9.6167,-0.07
9.6194,-0.075
9.6222,-0.065
9.625,-0.05
9.6278,-0.045
9.6306,-0.055
9.6333,-0.075
9.6361,-0.08
9.6389,-0.07
9.6417,-0.05
9.6444,-0.07
9.6472,-0.075
9.65,-0.08
9.6528,-0.085
9.6556,-0.07
9.6583,-0.065
9.6611,-0.08
9.6639,-0.09
9.6667,-0.105
9.6694,-0.105
9.6722,-0.08
9.675,-0.075
9.6778,-0.08
9.6806,-0.105
9.6833,-0.12
9.6861,-0.125
9.6889,-0.115
9.6917,-0.09
9.6944,-0.105
9.6972,-0.125
9.7,-0.125
9.7028,-0.115
9.7056,-0.1
9.7083,-0.09
9.7111,-0.1
9.7139,-0.11
9.7167,-0.13
9.7194,-0.125
9.7222,-0.125
9.725,-0.11
9.7278,-0.105
9.7306,-0.11
9.7333,-0.14
9.7361,-0.13
9.7389,-0.11
9.7417,-0.1
9.7444,-0.105
9.7472,-0.13
9.75,-0.135
9.7528,-0.14
9.7556,-0.12
9.7583,-0.12
9.7611,-0.115
9.7639,-0.125
9.7667,-0.15
9.7694,-0.14
9.7722,-0.135
9.775,-0.125
9.7778,-0.13
9.7806,-0.135
9.7833,-0.145
9.7861,-0.14
9.7889,-0.115
9.7917,-0.105
9.7944,-0.11
9.7972,-0.12
9.8,-0.15
9.8028,-0.14
9.8056,-0.13
9.8083,-0.12
9.8111,-0.135
9.8139,-0.135
9.8167,-0.15
9.8194,-0.145
9.8222,-0.135
9.825,-0.115
9.8278,-0.12
9.8306,-0.13
9.8333,-0.14
9.8361,-0.135
9.8389,-0.13
9.8417,-0.12
9.8444,-0.12
9.8472,-0.14
9.85,-0.145
9.8528,-0.14
9.8556,-0.12
9.8583,-0.1
9.8611,-0.1
9.8639,-0.11
9.8667,-0.12
9.8694,-0.125
9.8722,-0.1
9.875,-0.09
9.8778,-0.095
9.8806,-0.12
9.8833,-0.115
9.8861,-0.11
9.8889,-0.105
9.8917,-0.095
9.8944,-0.1
9.8972,-0.12
9.9,-0.125
9.9028,-0.125
9.9056,-0.11
9.9083,-0.105
9.9111,-0.11
9.9139,-0.11
9.9167,-0.12
9.9194,-0.115
9.9222,-0.115
9.925,-0.085
9.9278,-0.07
9.9306,-0.07
9.9333,-0.065
9.9361,-0.08
9.9389,-0.055
9.9417,-0.02
9.9444,-0.02
9.9472,-0.03
9.95,-0.055
9.9528,-0.05
9.9556,-0.025
9.9583,-0.02
9.9611,-0.015
9.9639,-0.04
9.9667,-0.05
9.9694,-0.07
9.9722,-0.045
9.975,-0.035
9.9778,-0.065
9.9806,-0.095
9.9833,-0.11
9.9861,-0.105
9.9889,-0.095
9.9917,-0.08
9.9944,-0.07
9.9972,-0.08
10.0,-0.095
10.0028,-0.095
10.0056,-0.075
10.0083,-0.055
10.0111,-0.05
10.0139,-0.055
10.0167,-0.065
10.0194,-0.055
10.0222,-0.065
10.025,-0.065
10.0278,-0.085
10.0306,-0.115
10.0333,-0.135
10.0361,-0.125
10.0389,-0.115
10.0417,-0.1
10.0444,-0.11
10.0472,-0.13
10.05,-0.14
10.0528,-0.145
10.0556,-0.13
10.0583,-0.115
10.0611,-0.125
10.0639,-0.125
10.0667,-0.135
10.0694,-0.13
10.0722,-0.115
10.075,-0.11
10.0778,-0.115
10.0806,-0.14
10.0833,-0.14
10.0861,-0.13
10.0889,-0.125
10.0917,-0.11
10.0944,-0.11
10.0972,-0.12
10.1,-0.15
10.1028,-0.13
10.1056,-0.125
10.1083,-0.11
10.1111,-0.12
10.1139,-0.135
10.1167,-0.13
10.1194,-0.125
10.1222,-0.115
10.125,-0.08
10.1278,-0.055
10.1306,-0.05
10.1333,-0.03
10.1361,-0.035
10.1389,-0.085
10.1417,-0.17
10.1444,-0.25
10.1472,-0.32
10.15,-0.41
10.1528,-0.5
10.1556,-0.545
10.1583,-0.495
10.1611,-0.41
10.1639,-0.29
10.1667,-0.13
10.1694,-0.005
10.1722,0.075
10.175,0.05
10.1778,-0.12
10.1806,-0.345
10.1833,-0.52
10.1861,-0.555
10.1889,-0.515
10.1917,-0.445
10.1944,-0.37
10.1972,-0.275
10.2,-0.195
10.2028,-0.155
10.2056,-0.135
10.2083,-0.095
10.2111,-0.095
10.2139,-0.08
10.2167,-0.1
10.2194,-0.09
10.2222,-0.075
10.225,-0.065
10.2278,-0.06
10.2306,-0.055
10.2333,-0.075
10.2361,-0.06
10.2389,-0.03
10.2417,-0.01
10.2444,-0.02
10.2472,-0.03
10.25,-0.045
10.2528,-0.035
10.2556,-0.02
10.2583,-0.01
10.2611,-0.01
10.2639,-0.03
10.2667,-0.045
10.2694,-0.035
10.2722,-0.015
10.275,0.0
10.2778,0.005
10.2806,-0.005
10.2833,-0.02
10.2861,-0.01
10.2889,0.0
10.2917,0.01
10.2944,0.02
10.2972,-0.005
10.3,0.0
10.3028,0.005
10.3056,0.03
10.3083,0.025
10.3111,0.035
10.3139,0.03
10.3167,0.015
10.3194,0.025
10.3222,0.025
10.325,0.05
10.3278,0.03
10.3306,0.035
10.3333,0.01
10.3361,0.01
10.3389,0.045
10.3417,0.06
10.3444,0.045
10.3472,0.03
10.35,0.03
10.3528,0.025
10.3556,0.045
10.3583,0.055
10.3611,0.04
10.3639,0.035
10.3667,0.045
10.3694,0.05
10.3722,0.055
10.375,0.06
10.3778,0.075
10.3806,0.065
10.3833,0.07
10.3861,0.08
10.3889,0.09
10.3917,0.1
10.3944,0.095
10.3972,0.1
10.4,0.1
10.4028,0.1
10.4056,0.12
10.4083,0.125
10.4111,0.13
10.4139,0.12
10.4167,0.11
10.4194,0.13
10.4222,0.135
10.425,0.155
10.4278,0.15
10.4306,0.15
10.4333,0.135
10.4361,0.145
10.4389,0.175
10.4417,0.2
10.4444,0.2
10.4472,0.195
10.45,0.17
10.4528,0.195
10.4556,0.22
10.4583,0.245
10.4611,0.235
10.4639,0.21
10.4667,0.21
10.4694,0.21
10.4722,0.225
10.475,0.235
10.4778,0.215
10.4806,0.215
10.4833,0.195
10.4861,0.205
10.4889,0.2
10.4917,0.205
10.4944,0.195
10.4972,0.16
10.5,0.145
10.5028,0.13
10.5056,0.135
10.5083,0.13
10.5111,0.105
10.5139,0.095
10.5167,0.07
10.5194,0.085
10.5222,0.08
10.525,0.09
10.5278,0.075
10.5306,0.035
10.5333,0.04
10.5361,0.04
10.5389,0.04
10.5417,0.045
10.5444,0.025
10.5472,0.005
10.55,0.01
10.5528,0.01
10.5556,0.015
10.5583,0.02
10.5611,-0.005
10.5639,0.0
10.5667,-0.01
10.5694,-0.015
10.5722,0.0
10.575,0.015
10.5778,-0.01
10.5806,-0.025
10.5833,-0.04
10.5861,-0.025
10.5889,-0.005
10.5917,0.0
10.5944,-0.015
10.5972,-0.035
10.6,-0.055
10.6028,-0.04
10.6056,-0.015
10.6083,-0.005
10.6111,-0.02
10.6139,-0.025
10.6167,-0.055
10.6194,-0.05
10.6222,-0.03
10.625,-0.01
10.6278,-0.02
10.6306,-0.02
10.6333,-0.04
10.6361,-0.03
10.6389,-0.02
10.6417,-0.02
10.6444,-0.03
10.6472,-0.03
10.65,-0.05
10.6528,-0.04
10.6556,-0.03
10.6583,-0.015
10.6611,-0.02
10.6639,-0.03
10.6667,-0.055
10.6694,-0.04
10.6722,-0.02
10.675,-0.015
10.6778,-0.01
10.6806,-0.035
10.6833,-0.04
10.6861,-0.04
10.6889,-0.02
10.6917,-0.005
10.6944,-0.02
10.6972,-0.03
10.7,-0.045
10.7028,-0.03
10.7056,-0.03
10.7083,-0.02
10.7111,-0.005
10.7139,-0.04
10.7167,-0.045
10.7194,-0.02
10.7222,-0.02
10.725,-0.01
10.7278,-0.015
10.7306,-0.025
10.7333,-0.045
10.7361,-0.04
10.7389,-0.03
10.7417,-0.015
10.7444,-0.03
10.7472,-0.025
10.75,-0.05
10.7528,-0.05
10.7556,-0.02
10.7583,-0.01
10.7611,-0.035
10.7639,-0.05
10.7667,-0.06
10.7694,-0.06
10.7722,-0.05
10.775,-0.035
10.7778,-0.045
10.7806,-0.06
10.7833,-0.065
10.7861,-0.08
10.7889,-0.05
10.7917,-0.06
10.7944,-0.055
10.7972,-0.075
10.8,-0.085
10.8028,-0.06
10.8056,-0.065
10.8083,-0.055
10.8111,-0.06
10.8139,-0.065
10.8167,-0.075
10.8194,-0.07
10.8222,-0.07
10.825,-0.06
10.8278,-0.055
10.8306,-0.07
10.8333,-0.08
10.8361,-0.07
10.8389,-0.06
10.8417,-0.04
10.8444,-0.055
10.8472,-0.085
10.85,-0.095
10.8528,-0.095
10.8556,-0.075
10.8583,-0.065
10.8611,-0.065
10.8639,-0.08
10.8667,-0.1
10.8694,-0.1
10.8722,-0.075
10.875,-0.065
10.8778,-0.08
10.8806,-0.08
10.8833,-0.085
10.8861,-0.08
10.8889,-0.07
10.8917,-0.07
10.8944,-0.07
10.8972,-0.08
10.9,-0.09
10.9028,-0.08
10.9056,-0.08
10.9083,-0.085
10.9111,-0.08
10.9139,-0.09
10.9167,-0.095
10.9194,-0.1
10.9222,-0.085
10.925,-0.08
10.9278,-0.085
10.9306,-0.105
10.9333,-0.115
10.9361,-0.1
10.9389,-0.1
10.9417,-0.095
10.9444,-0.11
10.9472,-0.125
10.95,-0.11
10.9528,-0.11
10.9556,-0.095
10.9583,-0.085
10.9611,-0.1
10.9639,-0.125
10.9667,-0.125
10.9694,-0.11
10.9722,-0.105
10.975,-0.095
10.9778,-0.11
10.9806,-0.095
10.9833,-0.12
10.9861,-0.105
10.9889,-0.1
10.9917,-0.085
10.9944,-0.08
10.9972,-0.11
11.0,-0.105
11.0028,-0.09
11.0056,-0.09
11.0083,-0.07
11.0111,-0.065
11.0139,-0.095
11.0167,-0.08
11.0194,-0.065
11.0222,-0.05
11.025,-0.05
11.0278,-0.045
11.0306,-0.055
11.0333,-0.055
11.0361,-0.04
11.0389,-0.03
11.0417,-0.03
11.0444,-0.025
11.0472,-0.07
11.05,-0.07
11.0528,-0.085
11.0556,-0.07
11.0583,-0.065
11.0611,-0.085
11.0639,-0.1
11.0667,-0.105
11.0694,-0.105
11.0722,-0.085
11.075,-0.075
11.0778,-0.085
11.0806,-0.1
11.0833,-0.105
11.0861,-0.105
11.0889,-0.085
11.0917,-0.065
11.0944,-0.08
11.0972,-0.105
11.1,-0.125
11.1028,-0.135
11.1056,-0.13
11.1083,-0.12
11.1111,-0.13
11.1139,-0.13
11.1167,-0.145
11.1194,-0.145
11.1222,-0.125
11.125,-0.12
11.1278,-0.135
11.1306,-0.135
11.1333,-0.145
11.1361,-0.14
11.1389,-0.13
11.1417,-0.125
11.1444,-0.145
11.1472,-0.145
11.15,-0.16
11.1528,-0.15
11.1556,-0.15
11.1583,-0.13
11.1611,-0.15
11.1639,-0.145
11.1667,-0.155
11.1694,-0.16
11.1722,-0.13
11.175,-0.135
11.1778,-0.14
11.1806,-0.145
11.1833,-0.155
11.1861,-0.165
11.1889,-0.14
11.1917,-0.125
11.1944,-0.125
11.1972,-0.115
11.2,-0.12
11.2028,-0.09
11.2056,-0.065
11.2083,-0.035
11.2111,-0.03
11.2139,-0.01
11.2167,-0.03
11.2194,-0.065
11.2222,-0.115
11.225,-0.17
11.2278,-0.24
11.2306,-0.305
11.2333,-0.39
11.2361,-0.48
11.2389,-0.53
11.2417,-0.525
11.2444,-0.48
11.2472,-0.39
11.25,-0.26
11.2528,-0.11
11.2556,0.015
11.2583,0.095
11.2611,0.03
11.2639,-0.17
11.2667,-0.39
11.2694,-0.525
11.2722,-0.54
11.275,-0.495
11.2778,-0.41
11.2806,-0.32
11.2833,-0.24
11.2861,-0.165
11.2889,-0.135
11.2917,-0.1
11.2944,-0.105
11.2972,-0.1
11.3,-0.105
11.3028,-0.1
11.3056,-0.095
11.3083,-0.085
11.3111,-0.065
11.3139,-0.085
11.3167,-0.075
11.3194,-0.075
11.3222,-0.055
11.325,-0.035
11.3278,-0.02
11.3306,-0.04
11.3333,-0.055
11.3361,-0.055
11.3389,-0.045
11.3417,-0.04
11.3444,-0.035
11.3472,-0.055
11.35,-0.06
11.3528,-0.05
11.3556,-0.03
11.3583,-0.035
11.3611,-0.03
11.3639,-0.05
11.3667,-0.055
11.3694,-0.04
11.3722,-0.035
11.375,-0.015
11.3778,-0.015
11.3806,-0.035
11.3833,-0.03
11.3861,-0.035
11.3889,-0.02
11.3917,0.0
11.3944,0.0
11.3972,-0.01
11.4,-0.03
11.4028,-0.025
11.4056,0.0
11.4083,0.005
11.4111,0.0
11.4139,-0.015
11.4167,-0.025
11.4194,-0.015
11.4222,0.005
11.425,0.015
11.4278,0.005
11.4306,-0.005
11.4333,-0.01
11.4361,0.005
11.4389,0.015
11.4417,0.025
11.4444,0.03
11.4472,0.015
11.45,0.005
11.4528,0.025
11.4556,0.04
11.4583,0.055
11.4611,0.055
11.4639,0.03
11.4667,0.02
11.4694,0.035
11.4722,0.05
11.475,0.065
11.4778,0.075
11.4806,0.055
11.4833,0.045
11.4861,0.05
11.4889,0.075
11.4917,0.08
11.4944,0.085
11.4972,0.075
11.5,0.07
11.5028,0.085
11.5056,0.1
11.5083,0.105
11.5111,0.105
11.5139,0.085
11.5167,0.095
11.5194,0.11
11.5222,0.13
11.525,0.16
11.5278,0.145
11.5306,0.13
11.5333,0.135
11.5361,0.15
11.5389,0.15
11.5417,0.175
11.5444,0.155
11.5472,0.155
11.55,0.145
11.5528,0.135
11.5556,0.145
11.5583,0.155
11.5611,0.12
11.5639,0.12
11.5667,0.11
11.5694,0.105
11.5722,0.105
11.575,0.095
11.5778,0.085
11.5806,0.065
11.5833,0.05
11.5861,0.05
11.5889,0.035
11.5917,0.04
11.5944,0.015
11.5972,-0.01
11.6,-0.02
11.6028,-0.015
11.6056,-0.015
11.6083,-0.015
11.6111,-0.015
11.6139,-0.035
11.6167,-0.045
11.6194,-0.045
11.6222,-0.035
11.625,-0.04
11.6278,-0.04
11.6306,-0.065
11.6333,-0.075
11.6361,-0.07
11.6389,-0.04
11.6417,-0.06
11.6444,-0.055
11.6472,-0.07
11.65,-0.08
11.6528,-0.085
11.6556,-0.08
11.6583,-0.06
11.6611,-0.095
11.6639,-0.095
11.6667,-0.09
11.6694,-0.08
11.6722,-0.07
11.675,-0.065
11.6778,-0.07
11.6806,-0.08
11.6833,-0.085
11.6861,-0.075
11.6889,-0.06
11.6917,-0.045
11.6944,-0.055
11.6972,-0.06
11.7,-0.075
11.7028,-0.07
11.7056,-0.05
11.7083,-0.045
11.7111,-0.06
11.7139,-0.075
11.7167,-0.085
11.7194,-0.07
11.7222,-0.065
11.725,-0.045
11.7278,-0.05
11.7306,-0.055
11.7333,-0.06
11.7361,-0.05
11.7389,-0.045
11.7417,-0.04
11.7444,-0.045
11.7472,-0.055
11.75,-0.055
11.7528,-0.055
11.7556,-0.055
11.7583,-0.05
11.7611,-0.05
11.7639,-0.065
11.7667,-0.06
11.7694,-0.06
11.7722,-0.04
11.775,-0.035
11.7778,-0.05
11.7806,-0.075
11.7833,-0.07
11.7861,-0.055
11.7889,-0.055
11.7917,-0.065
11.7944,-0.06
11.7972,-0.07
11.8,-0.095
11.8028,-0.09
11.8056,-0.08
11.8083,-0.075
11.8111,-0.075
11.8139,-0.11
11.8167,-0.12
11.8194,-0.115
11.8222,-0.095
11.825,-0.095
11.8278,-0.1
11.8306,-0.13
11.8333,-0.13
11.8361,-0.11
11.8389,-0.08
11.8417,-0.065
11.8444,-0.085
11.8472,-0.105
11.85,-0.13
11.8528,-0.105
11.8556,-0.085
11.8583,-0.085
11.8611,-0.09
11.8639,-0.1
11.8667,-0.125
11.8694,-0.115
11.8722,-0.1
11.875,-0.1
11.8778,-0.105
11.8806,-0.1
11.8833,-0.115
11.8861,-0.11
11.8889,-0.105
11.8917,-0.095
11.8944,-0.1
11.8972,-0.1
11.9,-0.11
11.9028,-0.11
11.9056,-0.095
11.9083,-0.09
11.9111,-0.09
11.9139,-0.105
11.9167,-0.12
11.9194,-0.11
11.9222,-0.09
11.925,-0.09
11.9278,-0.105
11.9306,-0.115
11.9333,-0.13
11.9361,-0.105
11.9389,-0.095
11.9417,-0.095
11.9444,-0.1
11.9472,-0.105
11.95,-0.115
11.9528,-0.11
11.9556,-0.1
11.9583,-0.085
11.9611,-0.1
11.9639,-0.095
11.9667,-0.125
11.9694,-0.095
11.9722,-0.075
11.975,-0.085
11.9778,-0.085
11.9806,-0.1
11.9833,-0.11
11.9861,-0.11
11.9889,-0.105
11.9917,-0.085
11.9944,-0.085
11.9972,-0.105
12.0,-0.12
12.0028,-0.11
12.0056,-0.1
12.0083,-0.09
12.0111,-0.1
12.0139,-0.105
12.0167,-0.115
12.0194,-0.115
12.0222,-0.1
12.025,-0.08
12.0278,-0.08
12.0306,-0.085
12.0333,-0.09
12.0361,-0.075
12.0389,-0.05
12.0417,-0.04
12.0444,-0.05
12.0472,-0.045
12.05,-0.05
12.0528,-0.045
12.0556,-0.02
12.0583,-0.025
12.0611,-0.01
12.0639,-0.04
12.0667,-0.035
12.0694,-0.03
12.0722,-0.01
12.075,-0.01
12.0778,-0.025
12.0806,-0.04
12.0833,-0.05
12.0861,-0.05
12.0889,-0.055
12.0917,-0.055
12.0944,-0.08
12.0972,-0.1
12.1,-0.11
12.1028,-0.095
12.1056,-0.07
12.1083,-0.07
12.1111,-0.065
12.1139,-0.075
12.1167,-0.085
12.1194,-0.07
12.1222,-0.055
12.125,-0.04
12.1278,-0.03
12.1306,-0.055
12.1333,-0.07
12.1361,-0.075
12.1389,-0.075
12.1417,-0.08
12.1444,-0.09
12.1472,-0.115
12.15,-0.12
12.1528,-0.11
12.1556,-0.095
12.1583,-0.09
12.1611,-0.105
12.1639,-0.11
12.1667,-0.12
12.1694,-0.115
12.1722,-0.1
12.175,-0.095
12.1778,-0.1
12.1806,-0.115
12.1833,-0.115
12.1861,-0.115
12.1889,-0.115
12.1917,-0.085
12.1944,-0.1
12.1972,-0.1
12.2,-0.1
12.2028,-0.095
12.2056,-0.085
12.2083,-0.08
12.2111,-0.085
12.2139,-0.11
12.2167,-0.12
12.2194,-0.105
12.2222,-0.085
12.225,-0.085
12.2278,-0.08
12.2306,-0.095
12.2333,-0.085
12.2361,-0.07
12.2389,-0.05
12.2417,-0.025
12.2444,-0.01
12.2472,-0.005
12.25,-0.025
12.2528,-0.09
12.2556,-0.16
12.2583,-0.225
12.2611,-0.31
12.2639,-0.38
12.2667,-0.455
12.2694,-0.54
12.2722,-0.555
12.275,-0.515
12.2778,-0.42
12.2806,-0.315
12.2833,-0.165
12.2861,-0.035
12.2889,0.06
12.2917,0.035
12.2944,-0.125
12.2972,-0.335
12.3,-0.475
12.3028,-0.515
12.3056,-0.47
12.3083,-0.395
12.3111,-0.31
12.3139,-0.21
12.3167,-0.145
12.3194,-0.1
12.3222,-0.075
12.325,-0.055
12.3278,-0.06
12.3306,-0.07
12.3333,-0.08
12.3361,-0.06
12.3389,-0.04
12.3417,-0.015
12.3444,-0.02
12.3472,-0.02
12.35,-0.015
12.3528,-0.01
12.3556,0.01
12.3583,0.015
12.3611,0.005
12.3639,-0.005
12.3667,-0.02
12.3694,-0.015
12.3722,0.005
12.375,0.025
12.3778,0.02
12.3806,0.005
12.3833,-0.005
12.3861,0.005
12.3889,0.015
12.3917,0.02
12.3944,0.02
12.3972,0.03
12.4,0.02
12.4028,0.015
12.4056,0.04
12.4083,0.05
12.4111,0.035
12.4139,0.025
12.4167,0.035
12.4194,0.05
12.4222,0.06
12.425,0.075
12.4278,0.05
12.4306,0.05
12.4333,0.035
12.4361,0.05
12.4389,0.06
12.4417,0.085
12.4444,0.08
12.4472,0.06
12.45,0.055
12.4528,0.065
12.4556,0.08
12.4583,0.075
12.4611,0.075
12.4639,0.07
12.4667,0.065
12.4694,0.065
12.4722,0.08
12.475,0.11
12.4778,0.12
12.4806,0.11
12.4833,0.11
12.4861,0.125
12.4889,0.14
12.4917,0.15
12.4944,0.155
12.4972,0.145
12.5,0.115
12.5028,0.135
12.5056,0.16
12.5083,0.19
12.5111,0.18
12.5139,0.17
12.5167,0.16
12.5194,0.175
12.5222,0.2
12.525,0.2
12.5278,0.21
12.5306,0.195
12.5333,0.195
12.5361,0.205
12.5389,0.22
12.5417,0.235
12.5444,0.24
12.5472,0.23
12.55,0.23
12.5528,0.235
12.5556,0.26
12.5583,0.275
12.5611,0.275
12.5639,0.265
12.5667,0.255
12.5694,0.24
12.5722,0.265
12.575,0.255
12.5778,0.24
12.5806,0.235
12.5833,0.205
12.5861,0.2
12.5889,0.21
12.5917,0.2
12.5944,0.18
12.5972,0.15
12.6,0.145
12.6028,0.135
12.6056,0.12
12.6083,0.105
12.6111,0.1
12.6139,0.075
12.6167,0.045
12.6194,0.07
12.6222,0.08
12.625,0.08
12.6278,0.06
12.6306,0.04
12.6333,0.035
12.6361,0.03
12.6389,0.03
12.6417,0.03
12.6444,0.025
12.6472,0.005
12.65,0.0
12.6528,0.005
12.6556,0.025
12.6583,0.02
12.6611,0.005
12.6639,-0.02
12.6667,-0.025
12.6694,-0.02
12.6722,-0.005
12.675,-0.01
12.6778,0.005
12.6806,-0.01
12.6833,-0.03
12.6861,-0.025
12.6889,-0.005
12.6917,0.01
12.6944,0.02
12.6972,-0.01
12.7,-0.01
12.7028,0.0
12.7056,0.005
12.7083,0.015
12.7111,0.01
12.7139,-0.005
12.7167,-0.025
12.7194,-0.005
12.7222,-0.01
12.725,0.015
12.7278,0.015
12.7306,-0.02
12.7333,-0.035
12.7361,-0.02
12.7389,-0.005
12.7417,0.01
12.7444,0.005
12.7472,-0.015
12.75,-0.045
12.7528,-0.02
12.7556,-0.01
12.7583,-0.015
12.7611,-0.005
12.7639,-0.005
12.7667,-0.015
12.7694,-0.015
12.7722,0.01
12.775,0.01
12.7778,-0.005
12.7806,-0.005
12.7833,0.0
12.7861,0.005
12.7889,0.03
12.7917,0.03
12.7944,0.015
12.7972,0.0
12.8,-0.015
12.8028,0.005
12.8056,0.02
12.8083,0.015
12.8111,0.005
12.8139,-0.015
12.8167,-0.02
12.8194,-0.02
12.8222,-0.01
12.825,-0.01
12.8278,-0.015
12.8306,-0.015
12.8333,-0.035
12.8361,-0.03
12.8389,-0.01
12.8417,0.0
12.8444,-0.015
12.8472,-0.02
12.85,-0.025
12.8528,-0.035
12.8556,0.005
12.8583,0.0
12.8611,-0.025
12.8639,-0.04
12.8667,-0.035
12.8694,-0.03
12.8722,-0.025
12.875,-0.015
12.8778,-0.045
12.8806,-0.06
12.8833,-0.07
12.8861,-0.055
12.8889,-0.035
12.8917,-0.025
12.8944,-0.035
12.8972,-0.045
12.9,-0.06
12.9028,-0.04
12.9056,-0.045
12.9083,-0.035
12.9111,-0.04
12.9139,-0.045
12.9167,-0.055
12.9194,-0.065
12.9222,-0.04
12.925,-0.03
12.9278,-0.04
12.9306,-0.045
12.9333,-0.055
12.9361,-0.045
12.9389,-0.035
12.9417,-0.045
12.9444,-0.055
12.9472,-0.07
12.95,-0.07
12.9528,-0.065
12.9556,-0.065
12.9583,-0.05
12.9611,-0.045
12.9639,-0.055
12.9667,-0.06
12.9694,-0.065
12.9722,-0.05
12.975,-0.035
12.9778,-0.045
12.9806,-0.045
12.9833,-0.05
12.9861,-0.05
12.9889,-0.04
12.9917,-0.04
12.9944,-0.05
12.9972,-0.06
13.0,-0.07
13.0028,-0.06
13.0056,-0.035
13.0083,-0.05
13.0111,-0.055
13.0139,-0.075
13.0167,-0.075
13.0194,-0.06
13.0222,-0.055
13.025,-0.05
13.0278,-0.055
13.0306,-0.055
13.0333,-0.06
13.0361,-0.03
13.0389,-0.015
13.0417,0.005
13.0444,0.005
13.0472,-0.005
13.05,-0.01
13.0528,0.0
13.0556,0.0
13.0583,0.005
13.0611,0.005
13.0639,-0.005
13.0667,0.005
13.0694,0.01
13.0722,0.01
13.075,0.02
13.0778,0.005
13.0806,-0.015
13.0833,-0.035
13.0861,-0.03
13.0889,-0.03
13.0917,-0.045
13.0944,-0.06
13.0972,-0.05
13.1,-0.055
13.1028,-0.045
13.1056,-0.03
13.1083,-0.035
13.1111,-0.04
13.1139,-0.055
13.1167,-0.045
13.1194,-0.02
13.1222,-0.02
13.125,-0.015
13.1278,-0.03
13.1306,-0.06
13.1333,-0.085
13.1361,-0.1
13.1389,-0.085
13.1417,-0.095
13.1444,-0.085
13.1472,-0.11
13.15,-0.11
13.1528,-0.105
13.1556,-0.08
13.1583,-0.08
13.1611,-0.09
13.1639,-0.11
13.1667,-0.105
13.1694,-0.095
13.1722,-0.075
13.175,-0.07
13.1778,-0.095
13.1806,-0.11
13.1833,-0.14
13.1861,-0.11
13.1889,-0.095
13.1917,-0.095
13.1944,-0.115
13.1972,-0.115
13.2,-0.135
13.2028,-0.1
13.2056,-0.085
13.2083,-0.09
13.2111,-0.09
13.2139,-0.12
13.2167,-0.11
13.2194,-0.1
13.2222,-0.085
13.225,-0.065
13.2278,-0.07
13.2306,-0.08
13.2333,-0.055
13.2361,-0.03
13.2389,0.02
13.2417,0.035
13.2444,0.035
13.2472,-0.035
13.25,-0.11
13.2528,-0.16
13.2556,-0.205
13.2583,-0.265
13.2611,-0.36
13.2639,-0.465
13.2667,-0.515
13.2694,-0.46
13.2722,-0.355
13.275,-0.22
13.2778,-0.075
13.2806,0.045
13.2833,0.115
13.2861,0.13
13.2889,0.005
13.2917,-0.21
13.2944,-0.405
13.2972,-0.495
13.3,-0.48
13.3028,-0.42
13.3056,-0.305
13.3083,-0.195
13.3111,-0.135
13.3139,-0.115
13.3167,-0.105
13.3194,-0.08
13.3222,-0.05
13.325,-0.05
13.3278,-0.06
13.3306,-0.07
13.3333,-0.065
13.3361,-0.06
13.3389,-0.04
13.3417,-0.025
13.3444,-0.025
13.3472,-0.035
13.35,-0.04
13.3528,-0.03
13.3556,-0.02
13.3583,-0.02
13.3611,-0.015
13.3639,-0.06
13.3667,-0.04
13.3694,-0.03
13.3722,-0.015
13.375,-0.01
13.3778,-0.01
13.3806,-0.04
13.3833,-0.02
13.3861,-0.01
13.3889,0.005
13.3917,0.01
13.3944,0.005
13.3972,-0.015
13.4,-0.005
13.4028,0.0
13.4056,0.0
13.4083,0.015
13.4111,0.0
13.4139,-0.015
13.4167,-0.02
13.4194,-0.005
13.4222,0.005
13.425,0.02
13.4278,0.01
13.4306,-0.005
13.4333,-0.015
13.4361,-0.01
13.4389,0.005
13.4417,0.015
13.4444,0.005
13.4472,-0.015
13.45,-0.005
13.4528,-0.01
13.4556,0.0
13.4583,0.015
13.4611,0.01
13.4639,0.01
13.4667,0.01
13.4694,0.025
13.4722,0.035
13.475,0.05
13.4778,0.045
13.4806,0.03
13.4833,0.04
13.4861,0.04
13.4889,0.05
13.4917,0.055
13.4944,0.055
13.4972,0.045
13.5,0.025
13.5028,0.05
13.5056,0.06
13.5083,0.06
13.5111,0.06
13.5139,0.04
13.5167,0.035
13.5194,0.055
13.5222,0.075
13.525,0.09
13.5278,0.08
13.5306,0.07
13.5333,0.075
13.5361,0.08
13.5389,0.11
13.5417,0.12
13.5444,0.12
13.5472,0.11
13.55,0.105
13.5528,0.115
13.5556,0.15
13.5583,0.145
13.5611,0.145
13.5639,0.135
13.5667,0.13
13.5694,0.135
13.5722,0.155
13.575,0.175
13.5778,0.16
13.5806,0.155
13.5833,0.155
13.5861,0.175
13.5889,0.175
13.5917,0.18
13.5944,0.175
13.5972,0.155
13.6,0.155
13.6028,0.155
13.6056,0.17
13.6083,0.165
13.6111,0.165
13.6139,0.14
13.6167,0.125
13.6194,0.135
13.6222,0.14
13.625,0.135
13.6278,0.13
13.6306,0.115
13.6333,0.095
13.6361,0.08
13.6389,0.09
13.6417,0.085
13.6444,0.065
13.6472,0.045
13.65,0.035
13.6528,0.035
13.6556,0.03
13.6583,0.035
13.6611,0.005
13.6639,-0.01
13.6667,-0.03
13.6694,-0.005
13.6722,0.0
13.675,0.005
13.6778,-0.025
13.6806,-0.035
13.6833,-0.04
13.6861,-0.04
13.6889,-0.015
13.6917,-0.015
13.6944,-0.03
13.6972,-0.045
13.7,-0.045
13.7028,-0.05
13.7056,-0.035
13.7083,-0.035
13.7111,-0.035
13.7139,-0.055
13.7167,-0.055
13.7194,-0.065
13.7222,-0.04
13.725,-0.03
13.7278,-0.04
13.7306,-0.055
13.7333,-0.06
13.7361,-0.045
13.7389,-0.04
13.7417,-0.045
13.7444,-0.065
13.7472,-0.065
13.75,-0.065
13.7528,-0.065
13.7556,-0.055
13.7583,-0.055
13.7611,-0.055
13.7639,-0.08
13.7667,-0.08
13.7694,-0.075
13.7722,-0.055
13.775,-0.045
13.7778,-0.05
13.7806,-0.06
13.7833,-0.07
13.7861,-0.06
13.7889,-0.055
13.7917,-0.04
13.7944,-0.045
13.7972,-0.055
13.8,-0.06
13.8028,-0.06
13.8056,-0.045
13.8083,-0.015
13.8111,-0.035
13.8139,-0.05
13.8167,-0.06
13.8194,-0.045
13.8222,-0.03
13.825,-0.015
13.8278,-0.03
13.8306,-0.05
13.8333,-0.06
13.8361,-0.045
13.8389,-0.025
13.8417,-0.015
13.8444,-0.02
13.8472,-0.04
13.85,-0.035
13.8528,-0.05
13.8556,-0.04
13.8583,-0.03
13.8611,-0.06
13.8639,-0.05
13.8667,-0.075
13.8694,-0.05
13.8722,-0.055
13.875,-0.05
13.8778,-0.045
13.8806,-0.055
13.8833,-0.075
13.8861,-0.08
13.8889,-0.07
13.8917,-0.065
13.8944,-0.075
13.8972,-0.08
13.9,-0.09
13.9028,-0.08
13.9056,-0.065
13.9083,-0.06
13.9111,-0.075
13.9139,-0.09
13.9167,-0.095
13.9194,-0.095
13.9222,-0.085
13.925,-0.065
13.9278,-0.06
13.9306,-0.065
13.9333,-0.07
13.9361,-0.085
13.9389,-0.055
13.9417,-0.055
13.9444,-0.06
13.9472,-0.08
13.95,-0.095
13.9528,-0.07
13.9556,-0.065
13.9583,-0.06
13.9611,-0.055
13.9639,-0.075
13.9667,-0.08
13.9694,-0.07
13.9722,-0.05
13.975,-0.055
13.9778,-0.055
13.9806,-0.075
13.9833,-0.08
13.9861,-0.08
13.9889,-0.06
13.9917,-0.065
13.9944,-0.075
13.9972,-0.08
14.0,-0.09
14.0028,-0.075
14.0056,-0.07
14.0083,-0.065
14.0111,-0.075
14.0139,-0.11
14.0167,-0.095
14.0194,-0.09
14.0222,-0.07
14.025,-0.055
14.0278,-0.07
14.0306,-0.085
14.0333,-0.095
14.0361,-0.085
14.0389,-0.07
14.0417,-0.06
14.0444,-0.085
14.0472,-0.08
14.05,-0.08
14.0528,-0.07
14.0556,-0.065
14.0583,-0.055
14.0611,-0.06
14.0639,-0.08
14.0667,-0.09
14.0694,-0.065
14.0722,-0.065
14.075,-0.055
14.0778,-0.06
14.0806,-0.085
14.0833,-0.09
14.0861,-0.075
14.0889,-0.065
14.0917,-0.065
14.0944,-0.07
14.0972,-0.09
14.1,-0.095
14.1028,-0.085
14.1056,-0.065
14.1083,-0.07
14.1111,-0.075
14.1139,-0.09
14.1167,-0.085
14.1194,-0.075
14.1222,-0.055
14.125,-0.06
14.1278,-0.065
14.1306,-0.085
14.1333,-0.05
14.1361,-0.04
14.1389,-0.02
14.1417,-0.01
14.1444,-0.005
14.1472,-0.02
14.15,-0.02
14.1528,-0.025
14.1556,0.0
14.1583,0.01
14.1611,-0.005
14.1639,-0.01
14.1667,-0.015
14.1694,0.005
14.1722,0.02
14.175,0.02
14.1778,0.005
14.1806,-0.01
14.1833,-0.01
14.1861,-0.01
14.1889,-0.01
14.1917,-0.02
14.1944,-0.035
14.1972,-0.065
14.2,-0.075
14.2028,-0.06
14.2056,-0.055
14.2083,-0.04
14.2111,-0.065
14.2139,-0.06
14.2167,-0.06
14.2194,-0.055
14.2222,-0.05
14.225,-0.035
14.2278,-0.025
14.2306,-0.035
14.2333,-0.04
14.2361,-0.045
14.2389,-0.03
14.2417,-0.025
14.2444,-0.055
14.2472,-0.085
14.25,-0.1
14.2528,-0.095
14.2556,-0.08
14.2583,-0.07
14.2611,-0.09
14.2639,-0.095
14.2667,-0.1
14.2694,-0.095
14.2722,-0.095
14.275,-0.085
14.2778,-0.105
14.2806,-0.115
14.2833,-0.13
14.2861,-0.095
14.2889,-0.095
14.2917,-0.09
14.2944,-0.1
14.2972,-0.135
14.3,-0.12
14.3028,-0.095
14.3056,-0.09
14.3083,-0.105
14.3111,-0.1
14.3139,-0.12
14.3167,-0.12
14.3194,-0.1
14.3222,-0.08
14.325,-0.08
14.3278,-0.105
14.3306,-0.12
14.3333,-0.11
14.3361,-0.11
14.3389,-0.08
14.3417,-0.07
14.3444,-0.07
14.3472,-0.065
14.35,-0.055
14.3528,-0.035
14.3556,-0.005
14.3583,0.025
14.3611,0.0
14.3639,-0.015
14.3667,-0.1
14.3694,-0.15
14.3722,-0.185
14.375,-0.235
14.3778,-0.305
14.3806,-0.4
14.3833,-0.5
14.3861,-0.565
14.3889,-0.555
14.3917,-0.505
14.3944,-0.435
14.3972,-0.335
14.4,-0.19
14.4028,-0.045
14.4056,0.065
14.4083,0.08
14.4111,0.005
14.4139,-0.165
14.4167,-0.35
14.4194,-0.455
14.4222,-0.49
14.425,-0.475
14.4278,-0.42
14.4306,-0.345
14.4333,-0.245
14.4361,-0.15
14.4389,-0.105
14.4417,-0.095
14.4444,-0.08
14.4472,-0.08
14.45,-0.07
14.4528,-0.07
14.4556,-0.045
14.4583,-0.045
14.4611,-0.05
14.4639,-0.05
14.4667,-0.035
14.4694,-0.015
14.4722,-0.01
14.475,-0.005
14.4778,0.005
14.4806,-0.015
14.4833,-0.01
14.4861,-0.015
14.4889,0.015
14.4917,0.02
14.4944,0.015
14.4972,0.005
14.5,-0.005
14.5028,-0.01
14.5056,0.005
14.5083,0.01
14.5111,0.005
14.5139,0.0
14.5167,-0.015
14.5194,0.01
14.5222,0.02
14.525,0.02
14.5278,0.015
14.5306,0.01
14.5333,0.015
14.5361,0.025
14.5389,0.04
14.5417,0.04
14.5444,0.04
14.5472,0.025
14.55,0.03
14.5528,0.035
14.5556,0.05
14.5583,0.04
14.5611,0.045
14.5639,0.03
14.5667,0.025
14.5694,0.04
14.5722,0.05
14.575,0.055
14.5778,0.055
14.5806,0.035
14.5833,0.03
14.5861,0.045
14.5889,0.065
14.5917,0.075
14.5944,0.06
14.5972,0.055
14.6,0.04
14.6028,0.055
14.6056,0.085
14.6083,0.1
14.6111,0.095
14.6139,0.085
14.6167,0.085
14.6194,0.095
14.6222,0.115
14.625,0.115
14.6278,0.12
14.6306,0.105
14.6333,0.1
14.6361,0.12
14.6389,0.14
14.6417,0.15
14.6444,0.145
14.6472,0.145
14.65,0.145
14.6528,0.145
14.6556,0.15
14.6583,0.16
14.6611,0.165
14.6639,0.155
14.6667,0.155
14.6694,0.185
14.6722,0.205
14.675,0.22
14.6778,0.21
14.6806,0.19
14.6833,0.205
14.6861,0.21
14.6889,0.24
14.6917,0.225
14.6944,0.22
14.6972,0.21
14.7,0.205
14.7028,0.205
14.7056,0.23
14.7083,0.235
14.7111,0.21
14.7139,0.2
14.7167,0.19
14.7194,0.18
14.7222,0.19
14.725,0.195
14.7278,0.16
14.7306,0.135
14.7333,0.13
14.7361,0.13
14.7389,0.135
14.7417,0.105
14.7444,0.095
14.7472,0.07
14.75,0.07
14.7528,0.07
14.7556,0.07
14.7583,0.055
14.7611,0.035
14.7639,0.03
14.7667,0.025
14.7694,0.02
14.7722,0.04
14.775,0.04
14.7778,0.015
14.7806,-0.005
14.7833,-0.005
14.7861,0.005
14.7889,0.01
14.7917,0.005
14.7944,0.0
14.7972,-0.025
14.8,-0.01
14.8028,-0.02
14.8056,-0.025
14.8083,0.0
14.8111,-0.005
14.8139,-0.015
14.8167,-0.025
14.8194,-0.035
14.8222,-0.02
14.825,-0.015
14.8278,-0.025
14.8306,-0.04
14.8333,-0.055
14.8361,-0.035
14.8389,-0.02
14.8417,-0.01
14.8444,-0.02
14.8472,-0.055
14.85,-0.025
14.8528,-0.03
14.8556,-0.015
14.8583,-0.005
14.8611,-0.01
14.8639,-0.025
14.8667,-0.025
14.8694,-0.015
14.8722,-0.01
14.875,-0.01
14.8778,-0.02
14.8806,-0.025
14.8833,-0.02
14.8861,-0.02
14.8889,-0.015
14.8917,0.0
14.8944,-0.015
14.8972,-0.03
14.9,-0.025
14.9028,-0.025
14.9056,0.0
14.9083,-0.005
14.9111,0.0
14.9139,-0.03
14.9167,-0.02
14.9194,-0.01
14.9222,-0.005
14.925,0.0
14.9278,-0.02
14.9306,-0.025
14.9333,-0.02
14.9361,-0.005
14.9389,0.005
14.9417,0.0
14.9444,-0.005
14.9472,-0.025
14.95,-0.035
14.9528,-0.03
14.9556,-0.015
14.9583,-0.04
14.9611,-0.035
14.9639,-0.065
14.9667,-0.055
14.9694,-0.05
14.9722,-0.04
14.975,-0.04
14.9778,-0.045
14.9806,-0.075
14.9833,-0.07
14.9861,-0.06
14.9889,-0.045
14.9917,-0.05
14.9944,-0.055
14.9972,-0.07
15.0,-0.065
15.0028,-0.065
15.0056,-0.05
15.0083,-0.05
15.0111,-0.045
15.0139,-0.07
15.0167,-0.075
15.0194,-0.07
15.0222,-0.055
15.025,-0.05
15.0278,-0.055
15.0306,-0.075
15.0333,-0.085
15.0361,-0.07
15.0389,-0.05
15.0417,-0.05
15.0444,-0.07
15.0472,-0.07
15.05,-0.07
15.0528,-0.075
15.0556,-0.065
15.0583,-0.065
15.0611,-0.07
15.0639,-0.08
15.0667,-0.085
15.0694,-0.085
15.0722,-0.07
15.075,-0.07
15.0778,-0.075
15.0806,-0.09
15.0833,-0.085
15.0861,-0.075
15.0889,-0.055
15.0917,-0.05
15.0944,-0.07
15.0972,-0.09
15.1,-0.08
15.1028,-0.085
15.1056,-0.06
15.1083,-0.07
15.1111,-0.09
15.1139,-0.095
15.1167,-0.085
15.1194,-0.08
15.1222,-0.075
15.125,-0.05
15.1278,-0.07
15.1306,-0.085
15.1333,-0.095
15.1361,-0.09
15.1389,-0.07
15.1417,-0.065
15.1444,-0.085
15.1472,-0.11
15.15,-0.105
15.1528,-0.09
15.1556,-0.07
15.1583,-0.07
15.1611,-0.08
15.1639,-0.08
15.1667,-0.08
15.1694,-0.065
15.1722,-0.045
15.175,-0.05
15.1778,-0.06
15.1806,-0.085
15.1833,-0.08
15.1861,-0.085
15.1889,-0.075
15.1917,-0.07
15.1944,-0.07
15.1972,-0.09
15.2,-0.09
15.2028,-0.09
15.2056,-0.08
15.2083,-0.075
15.2111,-0.08
15.2139,-0.085
15.2167,-0.1
15.2194,-0.08
15.2222,-0.065
15.225,-0.06
15.2278,-0.055
15.2306,-0.065
15.2333,-0.06
15.2361,-0.04
15.2389,-0.025
15.2417,-0.02
15.2444,-0.015
15.2472,-0.02
15.25,-0.02
15.2528,-0.005
15.2556,0.015
15.2583,-0.005
15.2611,0.01
15.2639,0.005
15.2667,0.01
15.2694,0.005
15.2722,0.01
15.275,0.005
15.2778,-0.01
15.2806,-0.035
15.2833,-0.06
15.2861,-0.045
15.2889,-0.04
15.2917,-0.045
15.2944,-0.065
15.2972,-0.08
15.3,-0.075
15.3028,-0.065
15.3056,-0.045
15.3083,-0.05
15.3111,-0.06
15.3139,-0.065
15.3167,-0.065
15.3194,-0.04
15.3222,-0.02
15.325,-0.015
15.3278,-0.04
15.3306,-0.05
15.3333,-0.07
15.3361,-0.075
15.3389,-0.065
15.3417,-0.09
15.3444,-0.09
15.3472,-0.1
15.35,-0.09
15.3528,-0.085
15.3556,-0.08
15.3583,-0.075
15.3611,-0.08
15.3639,-0.1
15.3667,-0.115
15.3694,-0.1
15.3722,-0.09
15.375,-0.095
15.3778,-0.105
15.3806,-0.12
15.3833,-0.115
15.3861,-0.105
15.3889,-0.09
15.3917,-0.1
15.3944,-0.11
15.3972,-0.12
15.4,-0.105
15.4028,-0.085
15.4056,-0.075
15.4083,-0.075
15.4111,-0.08
15.4139,-0.1
15.4167,-0.085
15.4194,-0.085
15.4222,-0.06
15.425,-0.045
15.4278,-0.055
15.4306,-0.055
15.4333,-0.035
15.4361,-0.005
15.4389,0.035
15.4417,0.025
15.4444,-0.025
15.4472,-0.13
15.45,-0.195
15.4528,-0.25
15.4556,-0.3
15.4583,-0.37
15.4611,-0.475
15.4639,-0.56
15.4667,-0.56
15.4694,-0.495
15.4722,-0.38
15.475,-0.235
15.4778,-0.09
15.4806,0.02
15.4833,0.07
15.4861,0.02
15.4889,-0.155
15.4917,-0.36
15.4944,-0.49
15.4972,-0.505
15.5,-0.465
15.5028,-0.38
15.5056,-0.27
15.5083,-0.18
15.5111,-0.11
15.5139,-0.095
15.5167,-0.08
15.5194,-0.065
15.5222,-0.05
15.525,-0.04
15.5278,-0.05
15.5306,-0.06
15.5333,-0.035
15.5361,-0.015
15.5389,0.01
15.5417,0.005
15.5444,-0.005
15.5472,-0.02
15.55,-0.005
15.5528,0.01
15.5556,0.03
15.5583,0.035
15.5611,0.02
15.5639,0.01
15.5667,0.015
15.5694,0.025
15.5722,0.035
15.575,0.045
15.5778,0.04
15.5806,0.015
15.5833,0.01
15.5861,0.015
15.5889,0.035
15.5917,0.05
15.5944,0.03
15.5972,0.015
15.6,0.025
15.6028,0.035
15.6056,0.045
15.6083,0.065
15.6111,0.05
15.6139,0.045
15.6167,0.045
15.6194,0.06
15.6222,0.085
15.625,0.085
15.6278,0.07
15.6306,0.055
15.6333,0.06
15.6361,0.07
15.6389,0.085
15.6417,0.09
15.6444,0.07
15.6472,0.055
15.65,0.06
15.6528,0.08
15.6556,0.08
15.6583,0.09
15.6611,0.085
15.6639,0.07
15.6667,0.075
15.6694,0.095
15.6722,0.105
15.675,0.115
15.6778,0.12
15.6806,0.11
15.6833,0.11
15.6861,0.12
15.6889,0.14
15.6917,0.155
15.6944,0.15
15.6972,0.125
15.7,0.14
15.7028,0.165
15.7056,0.17
15.7083,0.165
15.7111,0.165
15.7139,0.165
15.7167,0.165
15.7194,0.185
15.7222,0.2
15.725,0.2
15.7278,0.195
15.7306,0.19
15.7333,0.19
15.7361,0.215
15.7389,0.235
15.7417,0.235
15.7444,0.24
15.7472,0.23
15.75,0.245
15.7528,0.255
15.7556,0.28
15.7583,0.28
15.7611,0.28
15.7639,0.26
15.7667,0.26
15.7694,0.26
15.7722,0.28
15.775,0.285
15.7778,0.27
15.7806,0.265
15.7833,0.245
15.7861,0.245
15.7889,0.245
15.7917,0.25
15.7944,0.215
15.7972,0.195
15.8,0.185
15.8028,0.18
15.8056,0.175
15.8083,0.16
15.8111,0.135
15.8139,0.095
15.8167,0.105
15.8194,0.105
15.8222,0.115
15.825,0.095
15.8278,0.075
15.8306,0.04
15.8333,0.035
15.8361,0.05
15.8389,0.065
15.8417,0.05
15.8444,0.04
15.8472,0.02
15.85,0.025
15.8528,0.01
15.8556,0.035
15.8583,0.03
15.8611,0.03
15.8639,-0.005
15.8667,0.005
15.8694,0.005
15.8722,0.02
15.875,0.025
15.8778,0.005
15.8806,0.0
15.8833,0.005
15.8861,0.015
15.8889,0.025
15.8917,0.025
15.8944,0.015
15.8972,0.005
15.9,0.0
15.9028,0.01
15.9056,0.015
15.9083,0.0
15.9111,-0.005
15.9139,-0.015
15.9167,-0.025
15.9194,-0.005
15.9222,0.0
15.925,0.0
15.9278,-0.01
15.9306,-0.025
15.9333,-0.025
15.9361,-0.02
15.9389,0.0
15.9417,0.01
15.9444,-0.015
15.9472,-0.025
15.95,-0.015
15.9528,-0.005
15.9556,0.015
15.9583,0.015
15.9611,0.01
15.9639,-0.01
15.9667,-0.015
15.9694,0.0
15.9722,0.015
15.975,0.015
15.9778,0.01
15.9806,-0.01
15.9833,0.0
15.9861,0.015
15.9889,0.025
15.9917,0.015
15.9944,0.01
15.9972,-0.005
16.0,-0.01
16.0028,0.01
16.0056,0.02
16.0083,0.01
16.0111,0.0
16.0139,-0.015
16.0167,-0.025
16.0194,-0.005
16.0222,0.015
16.025,0.015
16.0278,-0.005
16.0306,-0.02
16.0333,-0.02
16.0361,-0.005
16.0389,-0.005
16.0417,0.0
16.0444,-0.015
16.0472,-0.015
16.05,-0.04
16.0528,-0.025
16.0556,-0.015
16.0583,-0.015
16.0611,-0.02
16.0639,-0.045
16.0667,-0.05
16.0694,-0.02
16.0722,-0.025
16.075,-0.03
16.0778,-0.04
16.0806,-0.055
16.0833,-0.065
16.0861,-0.06
16.0889,-0.04
16.0917,-0.04
16.0944,-0.045
16.0972,-0.055
16.1,-0.06
16.1028,-0.05
16.1056,-0.035
16.1083,-0.02
16.1111,-0.04
16.1139,-0.055
16.1167,-0.05
16.1194,-0.04
16.1222,-0.035
16.125,-0.04
16.1278,-0.065
16.1306,-0.07
16.1333,-0.08
16.1361,-0.06
16.1389,-0.05
16.1417,-0.06
16.1444,-0.065
16.1472,-0.08
16.15,-0.08
16.1528,-0.07
16.1556,-0.065
16.1583,-0.07
16.1611,-0.065
16.1639,-0.085
16.1667,-0.08
16.1694,-0.075
16.1722,-0.06
16.175,-0.05
16.1778,-0.08
16.1806,-0.085
16.1833,-0.08
16.1861,-0.075
16.1889,-0.06
16.1917,-0.07
16.1944,-0.085
16.1972,-0.095
16.2,-0.105
16.2028,-0.08
16.2056,-0.07
16.2083,-0.08
16.2111,-0.09
16.2139,-0.12
16.2167,-0.095
16.2194,-0.08
16.2222,-0.065
16.225,-0.06
16.2278,-0.08
16.2306,-0.09
16.2333,-0.075
16.2361,-0.08
16.2389,-0.06
16.2417,-0.055
16.2444,-0.075
16.2472,-0.08
16.25,-0.08
16.2528,-0.06
16.2556,-0.055
16.2583,-0.06
16.2611,-0.075
16.2639,-0.08
16.2667,-0.08
16.2694,-0.065
16.2722,-0.045
16.275,-0.04
16.2778,-0.045
16.2806,-0.055
16.2833,-0.035
16.2861,-0.035
16.2889,-0.03
16.2917,-0.015
16.2944,-0.01
16.2972,-0.035
16.3,-0.025
16.3028,-0.005
16.3056,0.005
16.3083,0.02
16.3111,0.005
16.3139,-0.005
16.3167,-0.01
16.3194,-0.01
16.3222,0.005
16.325,-0.02
16.3278,-0.03
16.3306,-0.05
16.3333,-0.06
16.3361,-0.055
16.3389,-0.05
16.3417,-0.05
16.3444,-0.06
16.3472,-0.08
16.35,-0.07
16.3528,-0.075
16.3556,-0.05
16.3583,-0.05
16.3611,-0.06
16.3639,-0.065
16.3667,-0.06
16.3694,-0.035
16.3722,-0.02
16.375,-0.01
16.3778,-0.035
16.3806,-0.07
16.3833,-0.105
16.3861,-0.085
16.3889,-0.09
16.3917,-0.075
16.3944,-0.085
16.3972,-0.095
16.4,-0.105
16.4028,-0.09
16.4056,-0.07
16.4083,-0.085
16.4111,-0.085
16.4139,-0.105
16.4167,-0.11
16.4194,-0.1
16.4222,-0.095
16.425,-0.095
16.4278,-0.105
16.4306,-0.115
16.4333,-0.135
16.4361,-0.12
16.4389,-0.115
16.4417,-0.11
16.4444,-0.12
16.4472,-0.12
16.45,-0.115
16.4528,-0.1
16.4556,-0.09
16.4583,-0.085
16.4611,-0.095
16.4639,-0.105
16.4667,-0.105
16.4694,-0.09
16.4722,-0.075
16.475,-0.07
16.4778,-0.08
16.4806,-0.08
16.4833,-0.07
16.4861,-0.05
16.4889,-0.02
16.4917,0.0
16.4944,0.0
16.4972,0.005
16.5,-0.055
16.5028,-0.13
16.5056,-0.17
16.5083,-0.215
16.5111,-0.27
16.5139,-0.35
16.5167,-0.425
16.5194,-0.485
16.5222,-0.5
16.525,-0.495
16.5278,-0.43
16.5306,-0.35
16.5333,-0.235
16.5361,-0.1
16.5389,0.035
16.5417,0.1
16.5444,0.085
16.5472,-0.055
16.55,-0.24
16.5528,-0.4
16.5556,-0.475
16.5583,-0.495
16.5611,-0.485
16.5639,-0.44
16.5667,-0.375
16.5694,-0.25
16.5722,-0.15
16.575,-0.095
16.5778,-0.085
16.5806,-0.09
16.5833,-0.075
16.5861,-0.055
16.5889,-0.05
16.5917,-0.04
16.5944,-0.035
16.5972,-0.04
16.6,-0.035
16.6028,-0.015
16.6056,0.01
16.6083,0.01
16.6111,0.005
16.6139,-0.01
16.6167,0.0
16.6194,0.01
16.6222,0.025
16.625,0.025
16.6278,0.005
16.6306,0.005
16.6333,0.015
16.6361,0.03
16.6389,0.04
16.6417,0.05
16.6444,0.045
16.6472,0.03
16.65,0.025
16.6528,0.035
16.6556,0.055
16.6583,0.055
16.6611,0.035
16.6639,0.025
16.6667,0.03
16.6694,0.03
16.6722,0.05
16.675,0.04
16.6778,0.03
16.6806,0.025
16.6833,0.03
16.6861,0.035
16.6889,0.06
16.6917,0.055
16.6944,0.06
16.6972,0.045
16.7,0.045
16.7028,0.05
16.7056,0.07
16.7083,0.07
16.7111,0.065
16.7139,0.055
16.7167,0.06
16.7194,0.055
16.7222,0.09
16.725,0.08
16.7278,0.065
16.7306,0.055
16.7333,0.08
16.7361,0.08
16.7389,0.105
16.7417,0.095
16.7444,0.1
16.7472,0.08
16.75,0.09
16.7528,0.1
16.7556,0.105
16.7583,0.115
16.7611,0.115
16.7639,0.095
16.7667,0.105
16.7694,0.12
16.7722,0.14
16.775,0.155
16.7778,0.135
16.7806,0.145
16.7833,0.125
16.7861,0.165
16.7889,0.165
16.7917,0.175
16.7944,0.175
16.7972,0.155
16.8,0.17
16.8028,0.175
16.8056,0.21
16.8083,0.215
16.8111,0.21
16.8139,0.205
16.8167,0.205
16.8194,0.21
16.8222,0.24
16.825,0.235
16.8278,0.22
16.8306,0.22
16.8333,0.225
16.8361,0.245
16.8389,0.265
16.8417,0.28
16.8444,0.27
16.8472,0.245
16.85,0.25
16.8528,0.275
16.8556,0.27
16.8583,0.27
16.8611,0.26
16.8639,0.245
16.8667,0.23
16.8694,0.215
16.8722,0.225
16.875,0.21
16.8778,0.195
16.8806,0.17
16.8833,0.145
16.8861,0.15
16.8889,0.155
16.8917,0.145
16.8944,0.12
16.8972,0.085
16.9,0.08
16.9028,0.065
16.9056,0.06
16.9083,0.04
16.9111,0.03
16.9139,0.025
16.9167,0.02
16.9194,0.025
16.9222,0.035
16.925,0.035
16.9278,0.01
16.9306,-0.005
16.9333,0.0
16.9361,-0.005
16.9389,0.015
16.9417,0.02
16.9444,-0.01
16.9472,-0.01
16.95,-0.015
16.9528,-0.005
16.9556,0.0
16.9583,-0.005
16.9611,-0.015
16.9639,-0.01
16.9667,-0.03
16.9694,-0.03
16.9722,0.0
16.975,-0.01
16.9778,-0.025
16.9806,-0.045
16.9833,-0.04
16.9861,-0.03
16.9889,-0.015
16.9917,-0.005
16.9944,-0.02
16.9972,-0.035
17.0,-0.045
17.0028,-0.035
17.0056,-0.02
17.0083,-0.025
17.0111,-0.03
17.0139,-0.045
17.0167,-0.05
17.0194,-0.025
17.0222,-0.015
17.025,-0.005
17.0278,-0.01
17.0306,-0.03
17.0333,-0.03
17.0361,-0.02
17.0389,-0.005
17.0417,-0.005
17.0444,-0.02
17.0472,-0.02
17.05,-0.02
17.0528,-0.02
17.0556,0.0
17.0583,-0.005
17.0611,0.005
17.0639,-0.01
17.0667,-0.03
17.0694,-0.03
17.0722,0.0
17.075,-0.005
17.0778,-0.02
17.0806,-0.025
17.0833,-0.035
17.0861,-0.025
17.0889,-0.005
17.0917,-0.02
17.0944,-0.025
17.0972,-0.03
17.1,-0.025
17.1028,-0.03
17.1056,-0.01
17.1083,-0.01
17.1111,-0.005
17.1139,-0.035
17.1167,-0.055
17.1194,-0.04
17.1222,-0.02
17.125,-0.025
17.1278,-0.05
17.1306,-0.05
17.1333,-0.065
17.1361,-0.055
17.1389,-0.035
17.1417,-0.04
17.1444,-0.06
17.1472,-0.065
17.15,-0.06
17.1528,-0.065
17.1556,-0.04
17.1583,-0.055
17.1611,-0.065
17.1639,-0.06
17.1667,-0.065
17.1694,-0.06
17.1722,-0.05
17.175,-0.055
17.1778,-0.06
17.1806,-0.07
17.1833,-0.07
17.1861,-0.065
17.1889,-0.05
17.1917,-0.06
17.1944,-0.065
17.1972,-0.08
17.2,-0.1
17.2028,-0.08
17.2056,-0.07
17.2083,-0.075
17.2111,-0.065
17.2139,-0.095
17.2167,-0.09
17.2194,-0.085
17.2222,-0.06
17.225,-0.065
17.2278,-0.075
17.2306,-0.105
17.2333,-0.1
17.2361,-0.07
17.2389,-0.07
17.2417,-0.065
17.2444,-0.075
17.2472,-0.095
17.25,-0.09
17.2528,-0.085
17.2556,-0.075
17.2583,-0.08
17.2611,-0.08
17.2639,-0.105
17.2667,-0.09
17.2694,-0.08
17.2722,-0.07
17.275,-0.085
17.2778,-0.09
17.2806,-0.105
17.2833,-0.115
17.2861,-0.1
17.2889,-0.07
17.2917,-0.08
17.2944,-0.09
17.2972,-0.085
17.3,-0.09
17.3028,-0.085
17.3056,-0.07
17.3083,-0.075
17.3111,-0.09
17.3139,-0.085
17.3167,-0.1
17.3194,-0.085
17.3222,-0.07
17.325,-0.075
17.3278,-0.075
17.3306,-0.105
17.3333,-0.105
17.3361,-0.09
17.3389,-0.085
17.3417,-0.085
17.3444,-0.085
17.3472,-0.09
17.35,-0.09
17.3528,-0.07
17.3556,-0.04
17.3583,-0.035
17.3611,-0.045
17.3639,-0.04
17.3667,-0.04
17.3694,-0.02
17.3722,-0.01
17.375,-0.01
17.3778,-0.02
17.3806,-0.015
17.3833,-0.035
17.3861,-0.005
17.3889,0.0
17.3917,-0.015
17.3944,-0.02
17.3972,-0.045
17.4,-0.045
17.4028,-0.05
17.4056,-0.045
17.4083,-0.06
17.4111,-0.08
17.4139,-0.085
17.4167,-0.095
17.4194,-0.08
17.4222,-0.065
17.425,-0.055
17.4278,-0.075
17.4306,-0.085
17.4333,-0.075
17.4361,-0.05
17.4389,-0.035
17.4417,-0.035
17.4444,-0.055
17.4472,-0.07
17.45,-0.095
17.4528,-0.105
17.4556,-0.1
17.4583,-0.105
17.4611,-0.115
17.4639,-0.12
17.4667,-0.115
17.4694,-0.11
17.4722,-0.115
17.475,-0.1
17.4778,-0.115
17.4806,-0.125
17.4833,-0.135
17.4861,-0.115
17.4889,-0.1
17.4917,-0.115
17.4944,-0.12
17.4972,-0.13
17.5,-0.13
17.5028,-0.12
17.5056,-0.105
17.5083,-0.1
17.5111,-0.115
17.5139,-0.125
17.5167,-0.125
17.5194,-0.115
17.5222,-0.105
17.525,-0.11
17.5278,-0.13
17.5306,-0.13
17.5333,-0.12
17.5361,-0.105
17.5389,-0.09
17.5417,-0.095
17.5444,-0.105
17.5472,-0.11
17.55,-0.1
17.5528,-0.085
17.5556,-0.03
17.5583,-0.025
17.5611,-0.035
17.5639,-0.035
17.5667,-0.065
17.5694,-0.13
17.5722,-0.195
17.575,-0.25
17.5778,-0.32
17.5806,-0.405
17.5833,-0.495
17.5861,-0.555
17.5889,-0.53
17.5917,-0.465
17.5944,-0.375
17.5972,-0.25
17.6,-0.11
17.6028,0.03
17.6056,0.095
17.6083,0.025
17.6111,-0.175
17.6139,-0.405
17.6167,-0.565
17.6194,-0.57
17.6222,-0.525
17.625,-0.44
17.6278,-0.34
17.6306,-0.24
17.6333,-0.15
17.6361,-0.12
17.6389,-0.095
17.6417,-0.08
17.6444,-0.09
17.6472,-0.105
17.65,-0.09
17.6528,-0.08
17.6556,-0.06
17.6583,-0.055
17.6611,-0.055
17.6639,-0.05
17.6667,-0.055
17.6694,-0.045
17.6722,-0.035
17.675,-0.02
17.6778,-0.02
17.6806,-0.025
17.6833,-0.02
17.6861,-0.005
17.6889,0.01
17.6917,0.0
17.6944,-0.01
17.6972,-0.01
17.7,-0.02
17.7028,-0.025
17.7056,-0.01
17.7083,0.0
17.7111,0.0
17.7139,-0.01
17.7167,-0.01
17.7194,-0.02
17.7222,-0.01
17.725,0.005
17.7278,0.0
17.7306,-0.025
17.7333,-0.025
17.7361,-0.015
17.7389,0.005
17.7417,-0.005
17.7444,-0.015
17.7472,-0.005
17.75,0.0
17.7528,0.015
17.7556,0.03
17.7583,0.02
17.7611,0.025
17.7639,0.02
17.7667,0.0
17.7694,0.015
17.7722,0.04
17.775,0.03
17.7778,0.025
17.7806,0.015
17.7833,0.02
17.7861,0.04
17.7889,0.05
17.7917,0.045
17.7944,0.025
17.7972,0.025
17.8,0.035
17.8028,0.045
17.8056,0.055
17.8083,0.065
17.8111,0.07
17.8139,0.06
17.8167,0.065
17.8194,0.08
17.8222,0.095
17.825,0.105
17.8278,0.075
17.8306,0.095
17.8333,0.11
17.8361,0.105
17.8389,0.13
17.8417,0.14
17.8444,0.135
17.8472,0.125
17.85,0.135
17.8528,0.15
17.8556,0.17
17.8583,0.17
17.8611,0.17
17.8639,0.165
17.8667,0.165
17.8694,0.18
17.8722,0.2
17.875,0.2
17.8778,0.19
17.8806,0.18
17.8833,0.175
17.8861,0.18
17.8889,0.19
17.8917,0.18
17.8944,0.155
17.8972,0.15
17.9,0.15
17.9028,0.145
17.9056,0.145
17.9083,0.14
17.9111,0.11
17.9139,0.09
17.9167,0.065
17.9194,0.08
17.9222,0.07
17.925,0.055
17.9278,0.025
17.9306,-0.005
17.9333,-0.01
17.9361,0.005
17.9389,0.0
17.9417,-0.01
17.9444,-0.015
17.9472,-0.045
17.95,-0.06
17.9528,-0.05
17.9556,-0.035
17.9583,-0.05
17.9611,-0.055
17.9639,-0.08
17.9667,-0.07
17.9694,-0.05
17.9722,-0.05
17.975,-0.05
17.9778,-0.065
17.9806,-0.075
17.9833,-0.065
17.9861,-0.06
17.9889,-0.065
17.9917,-0.07
17.9944,-0.075
17.9972,-0.095
18.0,-0.08
18.0028,-0.08
18.0056,-0.075
18.0083,-0.07
18.0111,-0.075
18.0139,-0.085
18.0167,-0.09
18.0194,-0.08
18.0222,-0.075
18.025,-0.08
18.0278,-0.095
18.0306,-0.1
18.0333,-0.105
18.0361,-0.09
18.0389,-0.06
18.0417,-0.06
18.0444,-0.075
18.0472,-0.07
18.05,-0.07
18.0528,-0.08
18.0556,-0.055
18.0583,-0.05
18.0611,-0.065
18.0639,-0.08
18.0667,-0.085
18.0694,-0.075
18.0722,-0.055
18.075,-0.065
18.0778,-0.07
18.0806,-0.085
18.0833,-0.085
18.0861,-0.09
18.0889,-0.075
18.0917,-0.07
18.0944,-0.08
18.0972,-0.085
18.1,-0.1
18.1028,-0.085
18.1056,-0.065
18.1083,-0.075
18.1111,-0.095
18.1139,-0.11
18.1167,-0.1
18.1194,-0.105
18.1222,-0.08
18.125,-0.08
18.1278,-0.09
18.1306,-0.115
18.1333,-0.115
18.1361,-0.11
18.1389,-0.1
18.1417,-0.095
18.1444,-0.11
18.1472,-0.125
18.15,-0.11
18.1528,-0.11
18.1556,-0.1
18.1583,-0.1
18.1611,-0.145
18.1639,-0.145
18.1667,-0.15
18.1694,-0.13
18.1722,-0.12
18.175,-0.13
18.1778,-0.13
18.1806,-0.155
18.1833,-0.14
18.1861,-0.135
18.1889,-0.12
18.1917,-0.13
18.1944,-0.135
18.1972,-0.155
18.2,-0.14
18.2028,-0.135
18.2056,-0.12
18.2083,-0.135
18.2111,-0.15
18.2139,-0.15
18.2167,-0.145
18.2194,-0.14
18.2222,-0.12
18.225,-0.14
18.2278,-0.15
18.2306,-0.155
18.2333,-0.16
18.2361,-0.155
18.2389,-0.145
18.2417,-0.145
18.2444,-0.155
18.2472,-0.165
18.25,-0.16
18.2528,-0.15
18.2556,-0.135
18.2583,-0.145
18.2611,-0.15
18.2639,-0.16
18.2667,-0.165
18.2694,-0.165
18.2722,-0.135
18.275,-0.135
18.2778,-0.135
18.2806,-0.165
18.2833,-0.165
18.2861,-0.15
18.2889,-0.14
18.2917,-0.13
18.2944,-0.15
18.2972,-0.17
18.3,-0.165
18.3028,-0.16
18.3056,-0.135
18.3083,-0.14
18.3111,-0.165
18.3139,-0.16
18.3167,-0.16
18.3194,-0.17
18.3222,-0.16
18.325,-0.16
18.3278,-0.15
18.3306,-0.165
18.3333,-0.17
18.3361,-0.15
18.3389,-0.15
18.3417,-0.14
18.3444,-0.15
18.3472,-0.16
18.35,-0.16
18.3528,-0.165
18.3556,-0.14
18.3583,-0.14
18.3611,-0.15
18.3639,-0.16
18.3667,-0.14
18.3694,-0.12
18.3722,-0.09
18.375,-0.09
18.3778,-0.095
18.3806,-0.115
18.3833,-0.115
18.3861,-0.1
18.3889,-0.07
18.3917,-0.085
18.3944,-0.1
18.3972,-0.09
18.4,-0.09
18.4028,-0.08
18.4056,-0.085
18.4083,-0.08
18.4111,-0.095
18.4139,-0.11
18.4167,-0.115
18.4194,-0.115
18.4222,-0.105
18.425,-0.115
18.4278,-0.14
18.4306,-0.145
18.4333,-0.13
18.4361,-0.135
18.4389,-0.12
18.4417,-0.12
18.4444,-0.13
18.4472,-0.145
18.45,-0.125
18.4528,-0.1
18.4556,-0.11
18.4583,-0.1
18.4611,-0.115
18.4639,-0.165
18.4667,-0.165
18.4694,-0.17
18.4722,-0.17
18.475,-0.155
18.4778,-0.16
18.4806,-0.17
18.4833,-0.18
18.4861,-0.18
18.4889,-0.165
18.4917,-0.155
18.4944,-0.165
18.4972,-0.18
18.5,-0.18
18.5028,-0.175
18.5056,-0.15
18.5083,-0.145
18.5111,-0.165
18.5139,-0.18
18.5167,-0.175
18.5194,-0.165
18.5222,-0.14
18.525,-0.15
18.5278,-0.15
18.5306,-0.18
18.5333,-0.19
18.5361,-0.165
18.5389,-0.165
18.5417,-0.155
18.5444,-0.18
18.5472,-0.18
18.55,-0.18
18.5528,-0.16
18.5556,-0.13
18.5583,-0.125
18.5611,-0.125
18.5639,-0.12
18.5667,-0.1
18.5694,-0.065
18.5722,-0.03
18.575,-0.065
18.5778,-0.155
18.5806,-0.25
18.5833,-0.305
18.5861,-0.355
18.5889,-0.43
18.5917,-0.55
18.5944,-0.64
18.5972,-0.65
18.6,-0.59
18.6028,-0.46
18.6056,-0.3
18.6083,-0.16
18.6111,-0.05
18.6139,-0.01
18.6167,-0.115
18.6194,-0.315
18.6222,-0.48
18.625,-0.59
18.6278,-0.6
18.6306,-0.545
18.6333,-0.435
18.6361,-0.31
18.6389,-0.195
18.6417,-0.16
18.6444,-0.16
18.6472,-0.145
18.65,-0.14
18.6528,-0.125
18.6556,-0.105
18.6583,-0.105
18.6611,-0.105
18.6639,-0.125
18.6667,-0.105
18.6694,-0.085
18.6722,-0.07
18.675,-0.08
18.6778,-0.08
18.6806,-0.08
18.6833,-0.09
18.6861,-0.075
18.6889,-0.05
18.6917,-0.065
18.6944,-0.08
18.6972,-0.09
18.7,-0.08
18.7028,-0.075
18.7056,-0.05
18.7083,-0.05
18.7111,-0.055
18.7139,-0.055
18.7167,-0.06
18.7194,-0.04
18.7222,-0.02
18.725,-0.02
18.7278,-0.04
18.7306,-0.045
18.7333,-0.05
18.7361,-0.03
18.7389,-0.02
18.7417,-0.025
18.7444,-0.02
18.7472,-0.04
18.75,-0.04
18.7528,-0.03
18.7556,-0.01
18.7583,-0.005
18.7611,-0.01
18.7639,-0.035
18.7667,-0.02
18.7694,-0.005
18.7722,0.01
18.775,-0.005
18.7778,0.005
18.7806,-0.025
18.7833,-0.02
18.7861,0.0
18.7889,0.02
18.7917,0.02
18.7944,0.015
18.7972,0.005
18.8,0.015
18.8028,0.03
18.8056,0.03
18.8083,0.055
18.8111,0.055
18.8139,0.045
18.8167,0.03
18.8194,0.05
18.8222,0.075
18.825,0.08
18.8278,0.065
18.8306,0.065
18.8333,0.075
18.8361,0.075
18.8389,0.105
18.8417,0.1
18.8444,0.085
18.8472,0.08
18.85,0.09
18.8528,0.105
18.8556,0.12
18.8583,0.135
18.8611,0.13
18.8639,0.13
18.8667,0.145
18.8694,0.145
18.8722,0.17
18.875,0.16
18.8778,0.14
18.8806,0.13
18.8833,0.135
18.8861,0.15
18.8889,0.16
18.8917,0.145
18.8944,0.125
18.8972,0.095
18.9,0.09
18.9028,0.095
18.9056,0.085
18.9083,0.075
18.9111,0.045
18.9139,0.025
18.9167,-0.005
18.9194,0.01
18.9222,0.01
18.925,0.005
18.9278,-0.02
18.9306,-0.045
18.9333,-0.03
18.9361,-0.04
18.9389,-0.02
18.9417,-0.035
18.9444,-0.055
18.9472,-0.07
18.95,-0.07
18.9528,-0.065
18.9556,-0.05
18.9583,-0.055
18.9611,-0.085
18.9639,-0.1
18.9667,-0.11
18.9694,-0.085
18.9722,-0.08
18.975,-0.08
18.9778,-0.095
18.9806,-0.11
18.9833,-0.115
18.9861,-0.09
18.9889,-0.085
18.9917,-0.085
18.9944,-0.1
18.9972,-0.11
19.0,-0.1
19.0028,-0.095
19.0056,-0.09
19.0083,-0.09
19.0111,-0.1
19.0139,-0.105
19.0167,-0.095
19.0194,-0.075
19.0222,-0.07
19.025,-0.065
19.0278,-0.08
19.0306,-0.085
19.0333,-0.105
19.0361,-0.09
19.0389,-0.075
19.0417,-0.07
19.0444,-0.08
19.0472,-0.08
19.05,-0.085
19.0528,-0.07
19.0556,-0.06
19.0583,-0.065
19.0611,-0.08
19.0639,-0.09
19.0667,-0.095
19.0694,-0.075
19.0722,-0.065
19.075,-0.06
19.0778,-0.075
19.0806,-0.105
19.0833,-0.095
19.0861,-0.085
19.0889,-0.065
19.0917,-0.07
19.0944,-0.075
19.0972,-0.085
19.1,-0.075
19.1028,-0.075
19.1056,-0.07
19.1083,-0.065
19.1111,-0.09
19.1139,-0.09
19.1167,-0.095
19.1194,-0.09
19.1222,-0.075
19.125,-0.08
19.1278,-0.105
19.1306,-0.125
19.1333,-0.12
19.1361,-0.11
19.1389,-0.105
19.1417,-0.12
19.1444,-0.115
19.1472,-0.135
19.15,-0.135
19.1528,-0.115
19.1556,-0.105
19.1583,-0.105
19.1611,-0.12
19.1639,-0.125
19.1667,-0.125
19.1694,-0.125
19.1722,-0.1
19.175,-0.115
19.1778,-0.12
19.1806,-0.15
19.1833,-0.135
19.1861,-0.12
19.1889,-0.115
19.1917,-0.135
19.1944,-0.145
19.1972,-0.155
19.2,-0.17
19.2028,-0.145
19.2056,-0.135
19.2083,-0.14
19.2111,-0.155
19.2139,-0.175
19.2167,-0.17
19.2194,-0.145
19.2222,-0.15
19.225,-0.135
19.2278,-0.14
19.2306,-0.155
19.2333,-0.16
19.2361,-0.145
19.2389,-0.13
19.2417,-0.135
19.2444,-0.165
19.2472,-0.17
19.25,-0.165
19.2528,-0.16
19.2556,-0.14
19.2583,-0.14
19.2611,-0.165
19.2639,-0.165
19.2667,-0.185
19.2694,-0.17
19.2722,-0.16
19.275,-0.165
19.2778,-0.17
19.2806,-0.195
19.2833,-0.18
19.2861,-0.16
19.2889,-0.145
19.2917,-0.155
19.2944,-0.16
19.2972,-0.17
19.3,-0.18
19.3028,-0.17
19.3056,-0.15
19.3083,-0.16
19.3111,-0.16
19.3139,-0.175
19.3167,-0.17
19.3194,-0.155
19.3222,-0.15
19.325,-0.145
19.3278,-0.15
19.3306,-0.19
19.3333,-0.18
19.3361,-0.17
19.3389,-0.16
19.3417,-0.15
19.3444,-0.17
19.3472,-0.18
19.35,-0.185
19.3528,-0.16
19.3556,-0.14
19.3583,-0.145
19.3611,-0.16
19.3639,-0.17
19.3667,-0.165
19.3694,-0.145
19.3722,-0.12
19.375,-0.11
19.3778,-0.12
19.3806,-0.12
19.3833,-0.105
19.3861,-0.11
19.3889,-0.095
19.3917,-0.085
19.3944,-0.08
19.3972,-0.1
19.4,-0.09
19.4028,-0.08
19.4056,-0.06
19.4083,-0.06
19.4111,-0.085
19.4139,-0.105
19.4167,-0.115
19.4194,-0.095
19.4222,-0.08
19.425,-0.085
19.4278,-0.1
19.4306,-0.125
19.4333,-0.13
19.4361,-0.125
19.4389,-0.12
19.4417,-0.12
19.4444,-0.125
19.4472,-0.14
19.45,-0.145
19.4528,-0.145
19.4556,-0.12
19.4583,-0.12
19.4611,-0.135
19.4639,-0.13
19.4667,-0.12
19.4694,-0.11
19.4722,-0.11
19.475,-0.125
19.4778,-0.15
19.4806,-0.17
19.4833,-0.185
19.4861,-0.18
19.4889,-0.16
19.4917,-0.16
19.4944,-0.17
19.4972,-0.18
19.5,-0.165
19.5028,-0.16
19.5056,-0.15
19.5083,-0.16
19.5111,-0.185
19.5139,-0.18
19.5167,-0.19
19.5194,-0.175
19.5222,-0.16
19.525,-0.16
19.5278,-0.17
19.5306,-0.18
19.5333,-0.18
19.5361,-0.165
19.5389,-0.155
19.5417,-0.165
19.5444,-0.175
19.5472,-0.18
19.55,-0.18
19.5528,-0.185
19.5556,-0.17
19.5583,-0.175
19.5611,-0.18
19.5639,-0.185
19.5667,-0.18
19.5694,-0.175
19.5722,-0.145
19.575,-0.155
19.5778,-0.155
19.5806,-0.16
19.5833,-0.145
19.5861,-0.12
19.5889,-0.09
19.5917,-0.065
19.5944,-0.07
19.5972,-0.065
19.6,-0.095
19.6028,-0.135
19.6056,-0.2
19.6083,-0.265
19.6111,-0.31
19.6139,-0.365
19.6167,-0.45
19.6194,-0.515
19.6222,-0.54
19.625,-0.555
19.6278,-0.52
19.6306,-0.45
19.6333,-0.31
19.6361,-0.18
19.6389,-0.04
19.6417,0.015
19.6444,-0.02
19.6472,-0.165
19.65,-0.36
19.6528,-0.51
19.6556,-0.58
19.6583,-0.58
19.6611,-0.56
19.6639,-0.495
19.6667,-0.395
19.6694,-0.295
19.6722,-0.195
19.675,-0.17
19.6778,-0.17
19.6806,-0.155
19.6833,-0.145
19.6861,-0.125
19.6889,-0.11
19.6917,-0.115
19.6944,-0.125
19.6972,-0.14
19.7,-0.125
19.7028,-0.11
19.7056,-0.09
19.7083,-0.09
19.7111,-0.1
19.7139,-0.1
19.7167,-0.105
19.7194,-0.08
19.7222,-0.065
19.725,-0.07
19.7278,-0.07
19.7306,-0.08
19.7333,-0.075
19.7361,-0.055
19.7389,-0.035
19.7417,-0.04
19.7444,-0.05
19.7472,-0.07
19.75,-0.065
19.7528,-0.045
19.7556,-0.03
19.7583,-0.035
19.7611,-0.045
19.7639,-0.06
19.7667,-0.055
19.7694,-0.05
19.7722,-0.035
19.775,-0.025
19.7778,-0.04
19.7806,-0.055
19.7833,-0.055
19.7861,-0.045
19.7889,-0.025
19.7917,-0.02
19.7944,-0.04
19.7972,-0.05
19.8,-0.035
19.8028,-0.015
19.8056,0.0
19.8083,-0.005
19.8111,-0.015
19.8139,-0.035
19.8167,-0.015
19.8194,0.0
19.8222,0.005
19.825,0.005
19.8278,-0.01
19.8306,-0.03
19.8333,-0.01
19.8361,0.0
19.8389,0.015
19.8417,0.03
19.8444,0.0
19.8472,0.0
19.85,0.01
19.8528,0.015
19.8556,0.04
19.8583,0.045
19.8611,0.03
19.8639,0.025
19.8667,0.03
19.8694,0.035
19.8722,0.06
19.875,0.05
19.8778,0.045
19.8806,0.03
19.8833,0.04
19.8861,0.075
19.8889,0.085
19.8917,0.085
19.8944,0.085
19.8972,0.075
19.9,0.075
19.9028,0.105
19.9056,0.125
19.9083,0.11
19.9111,0.12
19.9139,0.115
19.9167,0.12
19.9194,0.145
19.9222,0.15
19.925,0.155
19.9278,0.145
19.9306,0.135
19.9333,0.155
19.9361,0.17
19.9389,0.18
19.9417,0.165
19.9444,0.155
19.9472,0.155
19.95,0.14
19.9528,0.15
19.9556,0.17
19.9583,0.155
19.9611,0.12
19.9639,0.11
19.9667,0.1
19.9694,0.115
19.9722,0.11
19.975,0.11
19.9778,0.085
19.9806,0.06
19.9833,0.05
19.9861,0.04
19.9889,0.035
19.9917,0.02
19.9944,0.01
19.9972,-0.005
20.0,-0.015
20.0028,-0.02
20.0056,-0.035
20.0083,-0.025
20.0111,-0.05
20.0139,-0.065
20.0167,-0.07
20.0194,-0.055
20.0222,-0.05
20.025,-0.065
20.0278,-0.085
20.0306,-0.09
20.0333,-0.1
20.0361,-0.075
20.0389,-0.07
20.0417,-0.075
20.0444,-0.09
20.0472,-0.1
20.05,-0.09
20.0528,-0.075
20.0556,-0.065
20.0583,-0.065
20.0611,-0.085
20.0639,-0.095
20.0667,-0.095
20.0694,-0.08
20.0722,-0.075
20.075,-0.08
20.0778,-0.09
20.0806,-0.12
20.0833,-0.09
20.0861,-0.095
20.0889,-0.08
20.0917,-0.09
20.0944,-0.1
20.0972,-0.12
20.1,-0.105
20.1028,-0.095
20.1056,-0.09
20.1083,-0.09
20.1111,-0.105
20.1139,-0.105
20.1167,-0.11
20.1194,-0.105
20.1222,-0.075
20.125,-0.07
20.1278,-0.095
20.1306,-0.105
20.1333,-0.095
20.1361,-0.09
20.1389,-0.08
20.1417,-0.085
20.1444,-0.095
20.1472,-0.1
20.15,-0.105
20.1528,-0.09
20.1556,-0.07
20.1583,-0.085
20.1611,-0.09
20.1639,-0.095
20.1667,-0.1
20.1694,-0.08
20.1722,-0.08
20.175,-0.065
20.1778,-0.085
20.1806,-0.09
20.1833,-0.095
20.1861,-0.095
20.1889,-0.09
20.1917,-0.085
20.1944,-0.1
20.1972,-0.11
20.2,-0.105
20.2028,-0.095
20.2056,-0.07
20.2083,-0.075
20.2111,-0.085
20.2139,-0.12
20.2167,-0.1
20.2194,-0.105
20.2222,-0.075
20.225,-0.105
20.2278,-0.1
20.2306,-0.12
20.2333,-0.115
20.2361,-0.1
20.2389,-0.09
20.2417,-0.105
20.2444,-0.11
20.2472,-0.13
20.25,-0.125
20.2528,-0.1
20.2556,-0.11
20.2583,-0.115
20.2611,-0.125
20.2639,-0.13
20.2667,-0.13
20.2694,-0.125
20.2722,-0.115
20.275,-0.13
20.2778,-0.135
20.2806,-0.15
20.2833,-0.13
20.2861,-0.125
20.2889,-0.115
20.2917,-0.125
20.2944,-0.125
20.2972,-0.14
20.3,-0.145
20.3028,-0.135
20.3056,-0.11
20.3083,-0.115
20.3111,-0.135
20.3139,-0.15
20.3167,-0.14
20.3194,-0.125
20.3222,-0.125
20.325,-0.13
20.3278,-0.155
20.3306,-0.165
20.3333,-0.145
20.3361,-0.145
20.3389,-0.125
20.3417,-0.145
20.3444,-0.16
20.3472,-0.16
20.35,-0.155
20.3528,-0.145
20.3556,-0.125
20.3583,-0.15
20.3611,-0.145
20.3639,-0.165
20.3667,-0.165
20.3694,-0.155
20.3722,-0.13
20.375,-0.12
20.3778,-0.13
20.3806,-0.14
20.3833,-0.155
20.3861,-0.135
20.3889,-0.13
20.3917,-0.14
20.3944,-0.15
20.3972,-0.15
20.4,-0.155
20.4028,-0.145
20.4056,-0.13
20.4083,-0.145
20.4111,-0.15
20.4139,-0.175
20.4167,-0.155
20.4194,-0.16
20.4222,-0.14
20.425,-0.135
20.4278,-0.16
20.4306,-0.17
20.4333,-0.16
20.4361,-0.165
20.4389,-0.145
20.4417,-0.15
20.4444,-0.15
20.4472,-0.165
20.45,-0.15
20.4528,-0.13
20.4556,-0.13
20.4583,-0.125
20.4611,-0.135
20.4639,-0.17
20.4667,-0.155
20.4694,-0.135
20.4722,-0.12
20.475,-0.13
20.4778,-0.13
20.4806,-0.135
20.4833,-0.14
20.4861,-0.105
20.4889,-0.09
20.4917,-0.09
20.4944,-0.125
20.4972,-0.125
20.5,-0.11
20.5028,-0.11
20.5056,-0.085
20.5083,-0.08
20.5111,-0.085
20.5139,-0.095
20.5167,-0.085
20.5194,-0.075
20.5222,-0.06
20.525,-0.065
20.5278,-0.085
20.5306,-0.1
20.5333,-0.12
20.5361,-0.11
20.5389,-0.105
20.5417,-0.13
20.5444,-0.14
20.5472,-0.15
20.55,-0.145
20.5528,-0.13
20.5556,-0.115
20.5583,-0.125
20.5611,-0.135
20.5639,-0.145
20.5667,-0.135
20.5694,-0.125
20.5722,-0.095
20.575,-0.115
20.5778,-0.13
20.5806,-0.15
20.5833,-0.155
20.5861,-0.155
20.5889,-0.16
20.5917,-0.165
20.5944,-0.185
20.5972,-0.19
20.6,-0.19
20.6028,-0.17
20.6056,-0.17
20.6083,-0.17
20.6111,-0.175
20.6139,-0.18
20.6167,-0.175
20.6194,-0.175
20.6222,-0.16
20.625,-0.17
20.6278,-0.18
20.6306,-0.195
20.6333,-0.195
20.6361,-0.19
20.6389,-0.175
20.6417,-0.165
20.6444,-0.185
20.6472,-0.205
20.65,-0.195
20.6528,-0.175
20.6556,-0.175
20.6583,-0.18
20.6611,-0.185
20.6639,-0.19
20.6667,-0.185
20.6694,-0.185
20.6722,-0.175
20.675,-0.18
20.6778,-0.205
20.6806,-0.195
20.6833,-0.19
20.6861,-0.175
20.6889,-0.14
20.6917,-0.145
20.6944,-0.14
20.6972,-0.125
20.7,-0.115
20.7028,-0.07
20.7056,-0.035
20.7083,-0.06
20.7111,-0.13
20.7139,-0.19
20.7167,-0.25
20.7194,-0.305
20.7222,-0.33
20.725,-0.425
20.7278,-0.53
20.7306,-0.6
20.7333,-0.605
20.7361,-0.55
20.7389,-0.445
20.7417,-0.345
20.7444,-0.215
20.7472,-0.1
20.75,-0.015
20.7528,0.0
20.7556,-0.11
20.7583,-0.325
20.7611,-0.52
20.7639,-0.58
20.7667,-0.585
20.7694,-0.515
20.7722,-0.435
20.775,-0.35
20.7778,-0.265
20.7806,-0.215
20.7833,-0.185
20.7861,-0.175
20.7889,-0.135
20.7917,-0.14
20.7944,-0.15
20.7972,-0.165
20.8,-0.155
20.8028,-0.145
20.8056,-0.115
20.8083,-0.125
20.8111,-0.12
20.8139,-0.135
20.8167,-0.12
20.8194,-0.105
20.8222,-0.095
20.825,-0.11
20.8278,-0.105
20.8306,-0.135
20.8333,-0.11
20.8361,-0.095
20.8389,-0.085
20.8417,-0.085
20.8444,-0.105
20.8472,-0.1
20.85,-0.09
20.8528,-0.07
20.8556,-0.065
20.8583,-0.075
20.8611,-0.085
20.8639,-0.085
20.8667,-0.085
20.8694,-0.07
20.8722,-0.065
20.875,-0.06
20.8778,-0.07
20.8806,-0.095
20.8833,-0.085
20.8861,-0.07
20.8889,-0.07
20.8917,-0.065
20.8944,-0.07
20.8972,-0.085
20.9,-0.095
20.9028,-0.08
20.9056,-0.06
20.9083,-0.07
20.9111,-0.09
20.9139,-0.08
20.9167,-0.08
20.9194,-0.07
20.9222,-0.065
20.925,-0.04
20.9278,-0.04
20.9306,-0.05
20.9333,-0.055
20.9361,-0.05
20.9389,-0.035
20.9417,-0.025
20.9444,-0.03
20.9472,-0.05
20.95,-0.04
20.9528,-0.025
20.9556,-0.01
20.9583,-0.005
20.9611,-0.02
20.9639,-0.03
20.9667,-0.02
20.9694,-0.015
20.9722,0.0
20.975,0.005
20.9778,-0.005
20.9806,-0.005
20.9833,0.005
20.9861,0.025
20.9889,0.04
20.9917,0.04
20.9944,0.015
20.9972,0.03
21.0,0.03
21.0028,0.055
21.0056,0.07
21.0083,0.07
21.0111,0.065
21.0139,0.06
21.0167,0.075
21.0194,0.08
21.0222,0.095
21.025,0.095
21.0278,0.07
21.0306,0.065
21.0333,0.075
21.0361,0.07
21.0389,0.11
21.0417,0.1
21.0444,0.085
21.0472,0.065
21.05,0.07
21.0528,0.085
21.0556,0.095
21.0583,0.07
21.0611,0.05
21.0639,0.03
21.0667,0.02
21.0694,0.045
21.0722,0.055
21.075,0.045
21.0778,0.02
21.0806,-0.01
21.0833,-0.015
21.0861,-0.005
21.0889,-0.01
21.0917,-0.035
21.0944,-0.05
21.0972,-0.07
21.1,-0.075
21.1028,-0.065
21.1056,-0.07
21.1083,-0.08
21.1111,-0.09
21.1139,-0.105
21.1167,-0.105
21.1194,-0.095
21.1222,-0.085
21.125,-0.105
21.1278,-0.115
21.1306,-0.135
21.1333,-0.13
21.1361,-0.12
21.1389,-0.105
21.1417,-0.1
21.1444,-0.135
21.1472,-0.145
21.15,-0.12
21.1528,-0.11
21.1556,-0.105
21.1583,-0.115
21.1611,-0.105
21.1639,-0.13
21.1667,-0.135
21.1694,-0.12
21.1722,-0.11
21.175,-0.115
21.1778,-0.12
21.1806,-0.14
21.1833,-0.125
21.1861,-0.115
21.1889,-0.115
21.1917,-0.115
21.1944,-0.145
21.1972,-0.145
21.2,-0.13
21.2028,-0.13
21.2056,-0.12
21.2083,-0.115
21.2111,-0.12
21.2139,-0.135
21.2167,-0.125
21.2194,-0.12
21.2222,-0.105
21.225,-0.105
21.2278,-0.115
21.2306,-0.125
21.2333,-0.125
21.2361,-0.105
21.2389,-0.08
21.2417,-0.09
21.2444,-0.105
21.2472,-0.115
21.25,-0.11
21.2528,-0.105
21.2556,-0.09
21.2583,-0.095
21.2611,-0.12
21.2639,-0.13
21.2667,-0.13
21.2694,-0.115
21.2722,-0.105
21.275,-0.105
21.2778,-0.115
21.2806,-0.13
21.2833,-0.12
21.2861,-0.11
21.2889,-0.11
21.2917,-0.125
21.2944,-0.15
21.2972,-0.155
21.3,-0.155
21.3028,-0.13
21.3056,-0.115
21.3083,-0.125
21.3111,-0.155
21.3139,-0.15
21.3167,-0.135
21.3194,-0.135
21.3222,-0.125
21.325,-0.14
21.3278,-0.15
21.3306,-0.15
21.3333,-0.15
21.3361,-0.135
21.3389,-0.125
21.3417,-0.125
21.3444,-0.14
21.3472,-0.15
21.35,-0.15
21.3528,-0.145
21.3556,-0.125
21.3583,-0.135
21.3611,-0.16
21.3639,-0.175
21.3667,-0.18
21.3694,-0.16
21.3722,-0.14
21.375,-0.145
21.3778,-0.15
21.3806,-0.175
21.3833,-0.175
21.3861,-0.17
21.3889,-0.16
21.3917,-0.165
21.3944,-0.175
21.3972,-0.185
21.4,-0.18
21.4028,-0.17
21.4056,-0.145
21.4083,-0.15
21.4111,-0.155
21.4139,-0.18
21.4167,-0.16
21.4194,-0.14
21.4222,-0.14
21.425,-0.15
21.4278,-0.17
21.4306,-0.19
21.4333,-0.17
21.4361,-0.155
21.4389,-0.15
21.4417,-0.165
21.4444,-0.18
21.4472,-0.185
21.45,-0.185
21.4528,-0.185
21.4556,-0.165
21.4583,-0.17
21.4611,-0.185
21.4639,-0.2
21.4667,-0.185
21.4694,-0.175
21.4722,-0.165
21.475,-0.165
21.4778,-0.18
21.4806,-0.19
21.4833,-0.185
21.4861,-0.165
21.4889,-0.155
21.4917,-0.155
21.4944,-0.155
21.4972,-0.17
21.5,-0.165
21.5028,-0.16
21.5056,-0.14
21.5083,-0.145
21.5111,-0.155
21.5139,-0.2
21.5167,-0.18
21.5194,-0.17
21.5222,-0.14
21.525,-0.17
21.5278,-0.175
21.5306,-0.19
21.5333,-0.19
21.5361,-0.165
21.5389,-0.16
21.5417,-0.165
21.5444,-0.17
21.5472,-0.18
21.55,-0.175
21.5528,-0.165
21.5556,-0.14
21.5583,-0.165
21.5611,-0.18
21.5639,-0.185
21.5667,-0.17
21.5694,-0.175
21.5722,-0.15
21.575,-0.14
21.5778,-0.155
21.5806,-0.15
21.5833,-0.145
21.5861,-0.125
21.5889,-0.12
21.5917,-0.105
21.5944,-0.115
21.5972,-0.12
21.6,-0.125
21.6028,-0.105
21.6056,-0.09
21.6083,-0.075
21.6111,-0.09
21.6139,-0.105
21.6167,-0.11
21.6194,-0.1
21.6222,-0.085
21.625,-0.08
21.6278,-0.105
21.6306,-0.13
21.6333,-0.125
21.6361,-0.125
21.6389,-0.13
21.6417,-0.135
21.6444,-0.16
21.6472,-0.17
21.65,-0.15
21.6528,-0.13
21.6556,-0.125
21.6583,-0.13
21.6611,-0.14
21.6639,-0.145
21.6667,-0.135
21.6694,-0.105
21.6722,-0.105
21.675,-0.115
21.6778,-0.14
21.6806,-0.17
21.6833,-0.175
21.6861,-0.175
21.6889,-0.175
21.6917,-0.17
21.6944,-0.18
21.6972,-0.185
21.7,-0.185
21.7028,-0.165
21.7056,-0.155
21.7083,-0.165
21.7111,-0.165
21.7139,-0.18
21.7167,-0.165
21.7194,-0.16
21.7222,-0.16
21.725,-0.16
21.7278,-0.165
21.7306,-0.18
21.7333,-0.17
21.7361,-0.175
21.7389,-0.155
21.7417,-0.155
21.7444,-0.19
21.7472,-0.185
21.75,-0.18
21.7528,-0.185
21.7556,-0.17
21.7583,-0.17
21.7611,-0.19
21.7639,-0.19
21.7667,-0.175
21.7694,-0.155
21.7722,-0.14
21.775,-0.135
21.7778,-0.14
21.7806,-0.15
21.7833,-0.115
21.7861,-0.085
21.7889,-0.055
21.7917,-0.065
21.7944,-0.095
21.7972,-0.17
21.8,-0.27
21.8028,-0.32
21.8056,-0.345
21.8083,-0.425
21.8111,-0.525
21.8139,-0.61
21.8167,-0.63
21.8194,-0.565
21.8222,-0.455
21.825,-0.33
21.8278,-0.2
21.8306,-0.095
21.8333,-0.005
21.8361,-0.02
21.8389,-0.145
21.8417,-0.35
21.8444,-0.515
21.8472,-0.59
21.85,-0.59
21.8528,-0.525
21.8556,-0.435
21.8583,-0.335
21.8611,-0.245
21.8639,-0.195
21.8667,-0.17
21.8694,-0.14
21.8722,-0.13
21.875,-0.12
21.8778,-0.15
21.8806,-0.145
21.8833,-0.125
21.8861,-0.11
21.8889,-0.105
21.8917,-0.11
21.8944,-0.105
21.8972,-0.105
21.9,-0.09
21.9028,-0.08
21.9056,-0.07
21.9083,-0.065
21.9111,-0.075
21.9139,-0.075
21.9167,-0.07
21.9194,-0.05
21.9222,-0.04
21.925,-0.05
21.9278,-0.055
21.9306,-0.07
21.9333,-0.06
21.9361,-0.055
21.9389,-0.03
21.9417,-0.045
21.9444,-0.055
21.9472,-0.06
21.95,-0.05
21.9528,-0.045
21.9556,-0.05
21.9583,-0.03
21.9611,-0.055
21.9639,-0.06
21.9667,-0.06
21.9694,-0.045
21.9722,-0.025
21.975,-0.025
21.9778,-0.035
21.9806,-0.05
21.9833,-0.04
21.9861,-0.015
21.9889,-0.015
21.9917,-0.005
21.9944,-0.02
21.9972,-0.02
22.0,-0.025
22.0028,-0.005
22.0056,0.01
22.0083,0.005
22.0111,-0.005
22.0139,-0.01
22.0167,-0.01
22.0194,0.0
22.0222,0.015
22.025,0.01
22.0278,0.0
22.0306,0.0
22.0333,0.01
22.0361,0.035
22.0389,0.05
22.0417,0.04
22.0444,0.035
22.0472,0.05
22.05,0.05
22.0528,0.06
22.0556,0.075
22.0583,0.09
22.0611,0.09
22.0639,0.075
22.0667,0.085
22.0694,0.095
22.0722,0.125
22.075,0.12
22.0778,0.12
22.0806,0.105
22.0833,0.115
22.0861,0.135
22.0889,0.15
22.0917,0.14
22.0944,0.125
22.0972,0.125
22.1,0.125
22.1028,0.15
22.1056,0.16
22.1083,0.155
22.1111,0.145
22.1139,0.135
22.1167,0.13
22.1194,0.11
22.1222,0.12
22.125,0.095
22.1278,0.08
22.1306,0.05
22.1333,0.04
22.1361,0.035
22.1389,0.04
22.1417,0.025
22.1444,0.005
22.1472,-0.005
22.15,-0.01
22.1528,-0.01
22.1556,-0.02
22.1583,-0.03
22.1611,-0.045
22.1639,-0.065
22.1667,-0.075
22.1694,-0.065
22.1722,-0.045
22.175,-0.07
22.1778,-0.075
22.1806,-0.08
22.1833,-0.075
22.1861,-0.055
22.1889,-0.045
22.1917,-0.06
22.1944,-0.07
22.1972,-0.09
22.2,-0.07
22.2028,-0.07
22.2056,-0.06
22.2083,-0.07
22.2111,-0.08
22.2139,-0.08
22.2167,-0.08
22.2194,-0.065
22.2222,-0.055
22.225,-0.065
22.2278,-0.085
22.2306,-0.095
22.2333,-0.085
22.2361,-0.08
22.2389,-0.085
22.2417,-0.085
22.2444,-0.095
22.2472,-0.105
22.25,-0.09
22.2528,-0.08
22.2556,-0.07
22.2583,-0.085
22.2611,-0.085
22.2639,-0.085
22.2667,-0.075
22.2694,-0.06
22.2722,-0.055
22.275,-0.07
22.2778,-0.08
22.2806,-0.085
22.2833,-0.085
22.2861,-0.075
22.2889,-0.06
22.2917,-0.06
22.2944,-0.08
22.2972,-0.09
22.3,-0.08
22.3028,-0.07
22.3056,-0.07
22.3083,-0.08
22.3111,-0.085
22.3139,-0.1
22.3167,-0.105
22.3194,-0.085
22.3222,-0.07
22.325,-0.06
22.3278,-0.08
22.3306,-0.08
22.3333,-0.075
22.3361,-0.055
22.3389,-0.05
22.3417,-0.055
22.3444,-0.075
22.3472,-0.105
22.35,-0.095
22.3528,-0.08
22.3556,-0.085
22.3583,-0.09
22.3611,-0.11
22.3639,-0.12
22.3667,-0.11
22.3694,-0.1
22.3722,-0.095
22.375,-0.09
22.3778,-0.115
22.3806,-0.125
22.3833,-0.135
22.3861,-0.11
22.3889,-0.11
22.3917,-0.115
22.3944,-0.12
22.3972,-0.135
22.4,-0.13
22.4028,-0.115
22.4056,-0.12
22.4083,-0.13
22.4111,-0.14
22.4139,-0.13
22.4167,-0.13
22.4194,-0.12
22.4222,-0.11
22.425,-0.125
22.4278,-0.135
22.4306,-0.145
22.4333,-0.125
22.4361,-0.11
22.4389,-0.11
22.4417,-0.12
22.4444,-0.135
22.4472,-0.155
22.45,-0.165
22.4528,-0.13
22.4556,-0.14
22.4583,-0.14
22.4611,-0.155
22.4639,-0.16
22.4667,-0.15
22.4694,-0.14
22.4722,-0.13
22.475,-0.14
22.4778,-0.145
22.4806,-0.15
22.4833,-0.145
22.4861,-0.14
22.4889,-0.135
22.4917,-0.13
22.4944,-0.145
22.4972,-0.165
22.5,-0.15
22.5028,-0.145
22.5056,-0.15
22.5083,-0.15
22.5111,-0.16
22.5139,-0.165
22.5167,-0.16
22.5194,-0.15
22.5222,-0.135
22.525,-0.15
22.5278,-0.155
22.5306,-0.175
22.5333,-0.16
22.5361,-0.15
22.5389,-0.135
22.5417,-0.14
22.5444,-0.15
22.5472,-0.16
22.55,-0.15
22.5528,-0.15
22.5556,-0.13
22.5583,-0.155
22.5611,-0.16
22.5639,-0.175
22.5667,-0.165
22.5694,-0.135
22.5722,-0.12
22.575,-0.13
22.5778,-0.155
22.5806,-0.175
22.5833,-0.16
22.5861,-0.135
22.5889,-0.13
22.5917,-0.145
22.5944,-0.16
22.5972,-0.17
22.6,-0.16
22.6028,-0.145
22.6056,-0.12
22.6083,-0.145
22.6111,-0.15
22.6139,-0.15
22.6167,-0.14
22.6194,-0.12
22.6222,-0.115
22.625,-0.095
22.6278,-0.105
22.6306,-0.1
22.6333,-0.09
22.6361,-0.075
22.6389,-0.08
22.6417,-0.085
22.6444,-0.08
22.6472,-0.085
22.65,-0.09
22.6528,-0.07
22.6556,-0.05
22.6583,-0.06
22.6611,-0.075
22.6639,-0.095
22.6667,-0.095
22.6694,-0.095
22.6722,-0.095
22.675,-0.1
22.6778,-0.125
22.6806,-0.14
22.6833,-0.145
22.6861,-0.125
22.6889,-0.12
22.6917,-0.12
22.6944,-0.145
22.6972,-0.14
22.7,-0.125
22.7028,-0.115
22.7056,-0.105
22.7083,-0.1
22.7111,-0.105
22.7139,-0.115
22.7167,-0.115
22.7194,-0.095
22.7222,-0.105
22.725,-0.145
22.7278,-0.175
22.7306,-0.185
22.7333,-0.195
22.7361,-0.185
22.7389,-0.155
22.7417,-0.185
22.7444,-0.19
22.7472,-0.2
22.75,-0.19
22.7528,-0.155
22.7556,-0.145
22.7583,-0.155
22.7611,-0.17
22.7639,-0.18
22.7667,-0.17
22.7694,-0.16
22.7722,-0.155
22.775,-0.155
22.7778,-0.18
22.7806,-0.185
22.7833,-0.185
22.7861,-0.17
22.7889,-0.165
22.7917,-0.175
22.7944,-0.185
22.7972,-0.19
22.8,-0.185
22.8028,-0.175
22.8056,-0.17
22.8083,-0.165
22.8111,-0.18
22.8139,-0.19
22.8167,-0.19
22.8194,-0.17
22.8222,-0.155
22.825,-0.155
22.8278,-0.15
22.8306,-0.15
22.8333,-0.13
22.8361,-0.1
22.8389,-0.075
22.8417,-0.06
22.8444,-0.07
22.8472,-0.11
22.85,-0.18
22.8528,-0.23
22.8556,-0.27
22.8583,-0.31
22.8611,-0.38
22.8639,-0.455
22.8667,-0.52
22.8694,-0.55
22.8722,-0.525
22.875,-0.47
22.8778,-0.385
22.8806,-0.27
22.8833,-0.135
22.8861,-0.015
22.8889,0.04
22.8917,-0.005
22.8944,-0.175
22.8972,-0.38
22.9,-0.535
22.9028,-0.58
22.9056,-0.565
22.9083,-0.52
22.9111,-0.45
22.9139,-0.375
22.9167,-0.26
22.9194,-0.19
22.9222,-0.17
22.925,-0.15
22.9278,-0.135
22.9306,-0.135
22.9333,-0.14
22.9361,-0.115
22.9389,-0.105
22.9417,-0.105
22.9444,-0.12
22.9472,-0.105
22.95,-0.095
22.9528,-0.09
22.9556,-0.065
22.9583,-0.08
22.9611,-0.07
22.9639,-0.075
22.9667,-0.075
22.9694,-0.06
22.9722,-0.055
22.975,-0.06
22.9778,-0.08
22.9806,-0.085
22.9833,-0.075
22.9861,-0.05
22.9889,-0.04
22.9917,-0.06
22.9944,-0.055
22.9972,-0.07
23.0,-0.06
23.0028,-0.05
23.0056,-0.035
23.0083,-0.035
23.0111,-0.04
23.0139,-0.055
23.0167,-0.04
23.0194,-0.025
23.0222,-0.03
23.025,-0.02
23.0278,-0.02
23.0306,-0.035
23.0333,-0.03
23.0361,-0.035
23.0389,-0.01
23.0417,-0.02
23.0444,-0.035
23.0472,-0.04
23.05,-0.025
23.0528,-0.005
23.0556,-0.01
23.0583,-0.005
23.0611,-0.02
23.0639,-0.025
23.0667,-0.015
23.0694,-0.015
23.0722,-0.005
23.075,-0.015
23.0778,-0.015
23.0806,0.0
23.0833,0.0
23.0861,0.0
23.0889,0.025
23.0917,0.01
23.0944,0.03
23.0972,0.005
23.1,0.02
23.1028,0.045
23.1056,0.055
23.1083,0.06
23.1111,0.05
23.1139,0.04
23.1167,0.055
23.1194,0.075
23.1222,0.08
23.125,0.09
23.1278,0.065
23.1306,0.07
23.1333,0.095
23.1361,0.11
23.1389,0.12
23.1417,0.12
23.1444,0.11
23.1472,0.095
23.15,0.12
23.1528,0.135
23.1556,0.135
23.1583,0.145
23.1611,0.125
23.1639,0.12
23.1667,0.135
23.1694,0.155
23.1722,0.175
23.175,0.18
23.1778,0.175
23.1806,0.17
23.1833,0.175
23.1861,0.185
23.1889,0.185
23.1917,0.17
23.1944,0.15
23.1972,0.135
23.2,0.125
23.2028,0.125
23.2056,0.12
23.2083,0.105
23.2111,0.075
23.2139,0.05
23.2167,0.055
23.2194,0.06
23.2222,0.025
23.225,0.02
23.2278,0.005
23.2306,-0.005
23.2333,-0.015
23.2361,-0.015
23.2389,-0.015
23.2417,-0.015
23.2444,-0.03
23.2472,-0.035
23.25,-0.055
23.2528,-0.045
23.2556,-0.04
23.2583,-0.035
23.2611,-0.065
23.2639,-0.08
23.2667,-0.075
23.2694,-0.065
23.2722,-0.06
23.275,-0.075
23.2778,-0.08
23.2806,-0.095
23.2833,-0.09
23.2861,-0.08
23.2889,-0.085
23.2917,-0.075
23.2944,-0.09
23.2972,-0.095
23.3,-0.1
23.3028,-0.085
23.3056,-0.075
23.3083,-0.075
23.3111,-0.095
23.3139,-0.105
23.3167,-0.11
23.3194,-0.09
23.3222,-0.075
23.325,-0.08
23.3278,-0.105
23.3306,-0.11
23.3333,-0.1
23.3361,-0.09
23.3389,-0.08
23.3417,-0.095
23.3444,-0.1
23.3472,-0.1
23.35,-0.095
23.3528,-0.09
23.3556,-0.08
23.3583,-0.095
23.3611,-0.11
23.3639,-0.11
23.3667,-0.11
23.3694,-0.08
23.3722,-0.085
23.375,-0.07
23.3778,-0.095
23.3806,-0.1
23.3833,-0.1
23.3861,-0.08
23.3889,-0.07
23.3917,-0.07
23.3944,-0.09
23.3972,-0.095
23.4,-0.09
23.4028,-0.075
23.4056,-0.07
23.4083,-0.08
23.4111,-0.085
23.4139,-0.09
23.4167,-0.09
23.4194,-0.08
23.4222,-0.085
23.425,-0.09
23.4278,-0.095
23.4306,-0.105
23.4333,-0.105
23.4361,-0.08
23.4389,-0.07
23.4417,-0.07
23.4444,-0.095
23.4472,-0.115
23.45,-0.11
23.4528,-0.095
23.4556,-0.08
23.4583,-0.09
23.4611,-0.105
23.4639,-0.115
23.4667,-0.12
23.4694,-0.095
23.4722,-0.085
23.475,-0.09
23.4778,-0.135
23.4806,-0.13
23.4833,-0.115
23.4861,-0.105
23.4889,-0.1
23.4917,-0.115
23.4944,-0.13
23.4972,-0.135
23.5,-0.13
23.5028,-0.125
23.5056,-0.125
23.5083,-0.115
23.5111,-0.125
23.5139,-0.15
23.5167,-0.13
23.5194,-0.11
23.5222,-0.1
23.525,-0.115
23.5278,-0.125
23.5306,-0.13
23.5333,-0.105
23.5361,-0.105
23.5389,-0.095
23.5417,-0.105
23.5444,-0.12
23.5472,-0.13
23.55,-0.13
23.5528,-0.115
23.5556,-0.1
23.5583,-0.11
23.5611,-0.13
23.5639,-0.135
23.5667,-0.14
23.5694,-0.11
23.5722,-0.1
23.575,-0.12
23.5778,-0.135
23.5806,-0.145
23.5833,-0.135
23.5861,-0.11
23.5889,-0.105
23.5917,-0.11
23.5944,-0.135
23.5972,-0.14
23.6,-0.13
23.6028,-0.11
23.6056,-0.105
23.6083,-0.12
23.6111,-0.135
23.6139,-0.14
23.6167,-0.13
23.6194,-0.12
23.6222,-0.125
23.625,-0.125
23.6278,-0.135
23.6306,-0.145
23.6333,-0.14
23.6361,-0.13
23.6389,-0.13
23.6417,-0.135
23.6444,-0.13
23.6472,-0.145
23.65,-0.14
23.6528,-0.12
23.6556,-0.115
23.6583,-0.125
23.6611,-0.135
23.6639,-0.135
23.6667,-0.13
23.6694,-0.12
23.6722,-0.105
23.675,-0.11
23.6778,-0.115
23.6806,-0.11
23.6833,-0.105
23.6861,-0.08
23.6889,-0.065
23.6917,-0.09
23.6944,-0.095
23.6972,-0.1
23.7,-0.09
23.7028,-0.065
23.7056,-0.06
23.7083,-0.07
23.7111,-0.07
23.7139,-0.085
23.7167,-0.07
23.7194,-0.07
23.7222,-0.065
23.725,-0.07
23.7278,-0.11
23.7306,-0.1
23.7333,-0.11
23.7361,-0.115
23.7389,-0.105
23.7417,-0.11
23.7444,-0.145
23.7472,-0.13
23.75,-0.115
23.7528,-0.11
23.7556,-0.1
23.7583,-0.105
23.7611,-0.11
23.7639,-0.105
23.7667,-0.1
23.7694,-0.075
23.7722,-0.065
23.775,-0.08
23.7778,-0.12
23.7806,-0.155
23.7833,-0.15
23.7861,-0.145
23.7889,-0.14
23.7917,-0.15
23.7944,-0.175
23.7972,-0.175
23.8,-0.175
23.8028,-0.15
23.8056,-0.145
23.8083,-0.15
23.8111,-0.15
23.8139,-0.15
23.8167,-0.155
23.8194,-0.15
23.8222,-0.14
23.825,-0.135
23.8278,-0.155
23.8306,-0.175
23.8333,-0.175
23.8361,-0.15
23.8389,-0.15
23.8417,-0.15
23.8444,-0.175
23.8472,-0.175
23.85,-0.16
23.8528,-0.155
23.8556,-0.155
23.8583,-0.155
23.8611,-0.165
23.8639,-0.165
23.8667,-0.17
23.8694,-0.145
23.8722,-0.125
23.875,-0.135
23.8778,-0.125
23.8806,-0.12
23.8833,-0.105
23.8861,-0.07
23.8889,-0.035
23.8917,-0.03
23.8944,-0.035
23.8972,-0.095
23.9,-0.155
23.9028,-0.185
23.9056,-0.23
23.9083,-0.3
23.9111,-0.405
23.9139,-0.49
23.9167,-0.51
23.9194,-0.47
23.9222,-0.36
23.925,-0.225
23.9278,-0.09
23.9306,0.005
23.9333,0.05
23.9361,0.0
23.9389,-0.185
23.9417,-0.385
23.9444,-0.53
23.9472,-0.545
23.95,-0.495
23.9528,-0.4
23.9556,-0.305
23.9583,-0.225
23.9611,-0.165
23.9639,-0.16
23.9667,-0.145
23.9694,-0.125
23.9722,-0.11
23.975,-0.105
23.9778,-0.135
23.9806,-0.14
23.9833,-0.125
23.9861,-0.095
23.9889,-0.09
23.9917,-0.09
23.9944,-0.095
23.9972,-0.095
24.0,-0.09
24.0028,-0.075
24.0056,-0.075
24.0083,-0.075
24.0111,-0.07
24.0139,-0.065
24.0167,-0.06
24.0194,-0.055
24.0222,-0.045
24.025,-0.045
24.0278,-0.085
24.0306,-0.085
24.0333,-0.07
24.0361,-0.055
24.0389,-0.055
24.0417,-0.04
24.0444,-0.055
24.0472,-0.065
24.05,-0.06
24.0528,-0.065
24.0556,-0.04
24.0583,-0.055
24.0611,-0.055
24.0639,-0.06
24.0667,-0.06
24.0694,-0.05
24.0722,-0.05
24.075,-0.055
24.0778,-0.05
24.0806,-0.055
24.0833,-0.055
24.0861,-0.03
24.0889,-0.02
24.0917,-0.025
24.0944,-0.02
24.0972,-0.04
24.1,-0.045
24.1028,-0.02
24.1056,0.005
24.1083,-0.005
24.1111,-0.015
24.1139,-0.025
24.1167,-0.02
24.1194,0.005
24.1222,0.01
24.125,0.01
24.1278,-0.005
24.1306,-0.005
24.1333,0.005
24.1361,0.02
24.1389,0.02
24.1417,0.025
24.1444,0.02
24.1472,0.025
24.15,0.045
24.1528,0.06
24.1556,0.085
24.1583,0.085
24.1611,0.08
24.1639,0.065
24.1667,0.09
24.1694,0.12
24.1722,0.135
24.175,0.12
24.1778,0.11
24.1806,0.115
24.1833,0.12
24.1861,0.135
24.1889,0.14
24.1917,0.14
24.1944,0.12
24.1972,0.115
24.2,0.12
24.2028,0.13
24.2056,0.14
24.2083,0.14
24.2111,0.12
24.2139,0.11
24.2167,0.12
24.2194,0.13
24.2222,0.13
24.225,0.105
24.2278,0.1
24.2306,0.075
24.2333,0.075
24.2361,0.07
24.2389,0.07
24.2417,0.055
24.2444,0.025
24.2472,0.015
24.25,0.015
24.2528,0.015
24.2556,0.005
24.2583,-0.005
24.2611,-0.03
24.2639,-0.05
24.2667,-0.055
24.2694,-0.055
24.2722,-0.035
24.275,-0.06
24.2778,-0.075
24.2806,-0.07
24.2833,-0.065
24.2861,-0.06
24.2889,-0.05
24.2917,-0.055
24.2944,-0.08
24.2972,-0.1
24.3,-0.07
24.3028,-0.055
24.3056,-0.055
24.3083,-0.07
24.3111,-0.095
24.3139,-0.09
24.3167,-0.095
24.3194,-0.075
24.3222,-0.06
24.325,-0.075
24.3278,-0.09
24.3306,-0.1
24.3333,-0.1
24.3361,-0.1
24.3389,-0.085
24.3417,-0.09
24.3444,-0.105
24.3472,-0.105
24.35,-0.11
24.3528,-0.1
24.3556,-0.085
24.3583,-0.075
24.3611,-0.1
24.3639,-0.115
24.3667,-0.115
24.3694,-0.085
24.3722,-0.065
24.375,-0.08
24.3778,-0.1
24.3806,-0.11
24.3833,-0.09
24.3861,-0.075
24.3889,-0.07
24.3917,-0.085
24.3944,-0.095
24.3972,-0.105
24.4,-0.1
24.4028,-0.1
24.4056,-0.085
24.4083,-0.085
24.4111,-0.11
24.4139,-0.115
24.4167,-0.13
24.4194,-0.1
24.4222,-0.09
24.425,-0.09
24.4278,-0.115
24.4306,-0.12
24.4333,-0.115
