time,signal
0.0,-0.01
0.0028,-0.01
0.0056,-0.01
0.0083,-0.01
0.0111,-0.01
0.0139,-0.01
0.0167,-0.01
0.0194,-0.01
0.0222,-0.01
0.025,-0.035
0.0278,-0.07
0.0306,-0.1
0.0333,-0.125
0.0361,-0.15
0.0389,-0.16
0.0417,-0.175
0.0444,-0.18
0.0472,-0.195
0.05,-0.225
0.0528,-0.255
0.0556,-0.31
0.0583,-0.34
0.0611,-0.37
0.0639,-0.385
0.0667,-0.4
0.0694,-0.405
0.0722,-0.395
0.075,-0.395
0.0778,-0.39
0.0806,-0.395
0.0833,-0.385
0.0861,-0.39
0.0889,-0.395
0.0917,-0.395
0.0944,-0.415
0.0972,-0.41
0.1,-0.4
0.1028,-0.355
0.1056,-0.32
0.1083,-0.275
0.1111,-0.215
0.1139,-0.16
0.1167,-0.135
0.1194,-0.12
0.1222,-0.115
0.125,-0.105
0.1278,-0.09
0.1306,-0.08
0.1333,-0.075
0.1361,-0.05
0.1389,-0.055
0.1417,-0.085
0.1444,-0.13
0.1472,-0.19
0.15,-0.265
0.1528,-0.325
0.1556,-0.38
0.1583,-0.425
0.1611,-0.45
0.1639,-0.465
0.1667,-0.5
0.1694,-0.5
0.1722,-0.5
0.175,-0.49
0.1778,-0.475
0.1806,-0.47
0.1833,-0.475
0.1861,-0.485
0.1889,-0.485
0.1917,-0.505
0.1944,-0.505
0.1972,-0.51
0.2,-0.495
0.2028,-0.49
0.2056,-0.485
0.2083,-0.48
0.2111,-0.5
0.2139,-0.505
0.2167,-0.5
0.2194,-0.49
0.2222,-0.49
0.225,-0.485
0.2278,-0.505
0.2306,-0.53
0.2333,-0.56
0.2361,-0.56
0.2389,-0.505
0.2417,-0.38
0.2444,-0.175
0.2472,0.105
0.25,0.445
0.2528,0.815
0.2556,1.215
0.2583,1.575
0.2611,1.855
0.2639,1.965
0.2667,1.88
0.2694,1.62
0.2722,1.26
0.275,0.86
0.2778,0.43
0.2806,0.01
0.2833,-0.375
0.2861,-0.72
0.2889,-1.01
0.2917,-1.21
0.2944,-1.325
0.2972,-1.32
0.3,-1.23
0.3028,-1.1
0.3056,-0.96
0.3083,-0.845
0.3111,-0.78
0.3139,-0.75
0.3167,-0.76
0.3194,-0.8
0.3222,-0.85
0.325,-0.885
0.3278,-0.905
0.3306,-0.9
0.3333,-0.905
0.3361,-0.895
0.3389,-0.905
0.3417,-0.92
0.3444,-0.93
0.3472,-0.935
0.35,-0.93
0.3528,-0.92
0.3556,-0.91
0.3583,-0.905
0.3611,-0.92
0.3639,-0.925
0.3667,-0.94
0.3694,-0.94
0.3722,-0.935
0.375,-0.93
0.3778,-0.915
0.3806,-0.9
0.3833,-0.885
0.3861,-0.89
0.3889,-0.905
0.3917,-0.91
0.3944,-0.905
0.3972,-0.885
0.4,-0.85
0.4028,-0.815
0.4056,-0.795
0.4083,-0.775
0.4111,-0.77
0.4139,-0.755
0.4167,-0.73
0.4194,-0.71
0.4222,-0.675
0.425,-0.64
0.4278,-0.615
0.4306,-0.585
0.4333,-0.56
0.4361,-0.54
0.4389,-0.515
0.4417,-0.48
0.4444,-0.44
0.4472,-0.395
0.45,-0.355
0.4528,-0.33
0.4556,-0.3
0.4583,-0.28
0.4611,-0.26
0.4639,-0.24
0.4667,-0.21
0.4694,-0.155
0.4722,-0.105
0.475,-0.06
0.4778,-0.025
0.4806,0.01
0.4833,0.045
0.4861,0.07
0.4889,0.1
0.4917,0.15
0.4944,0.18
0.4972,0.22
0.5,0.255
0.5028,0.275
0.5056,0.3
0.5083,0.31
0.5111,0.325
0.5139,0.36
0.5167,0.39
0.5194,0.4
0.5222,0.38
0.525,0.365
0.5278,0.335
0.5306,0.3
0.5333,0.275
0.5361,0.25
0.5389,0.23
0.5417,0.185
0.5444,0.125
0.5472,0.09
0.55,0.035
0.5528,-0.01
0.5556,-0.065
0.5583,-0.105
0.5611,-0.145
0.5639,-0.175
0.5667,-0.205
0.5694,-0.23
0.5722,-0.255
0.575,-0.265
0.5778,-0.275
0.5806,-0.275
0.5833,-0.265
0.5861,-0.265
0.5889,-0.275
0.5917,-0.315
0.5944,-0.355
0.5972,-0.405
0.6,-0.445
0.6028,-0.455
0.6056,-0.47
0.6083,-0.475
0.6111,-0.49
0.6139,-0.5
0.6167,-0.515
0.6194,-0.525
0.6222,-0.555
0.625,-0.55
0.6278,-0.555
0.6306,-0.555
0.6333,-0.55
0.6361,-0.545
0.6389,-0.54
0.6417,-0.53
0.6444,-0.515
0.6472,-0.505
0.65,-0.49
0.6528,-0.475
0.6556,-0.465
0.6583,-0.48
0.6611,-0.49
0.6639,-0.52
0.6667,-0.54
0.6694,-0.55
0.6722,-0.535
0.675,-0.48
0.6778,-0.375
0.6806,-0.21
0.6833,0.005
0.6861,0.29
0.6889,0.655
0.6917,1.08
0.6944,1.51
0.6972,1.865
0.7,2.11
0.7028,2.175
0.7056,2.065
0.7083,1.815
0.7111,1.51
0.7139,1.155
0.7167,0.775
0.7194,0.41
0.7222,0.045
0.725,-0.36
0.7278,-0.72
0.7306,-1.0
0.7333,-1.14
0.7361,-1.165
0.7389,-1.06
0.7417,-0.92
0.7444,-0.795
0.7472,-0.715
0.75,-0.705
0.7528,-0.745
0.7556,-0.8
0.7583,-0.87
0.7611,-0.895
0.7639,-0.91
0.7667,-0.93
0.7694,-0.91
0.7722,-0.905
0.775,-0.92
0.7778,-0.93
0.7806,-0.95
0.7833,-0.955
0.7861,-0.975
0.7889,-0.99
0.7917,-1.025
0.7944,-1.04
0.7972,-1.065
0.8,-1.07
0.8028,-1.08
0.8056,-1.065
0.8083,-1.055
0.8111,-1.05
0.8139,-1.045
0.8167,-1.065
0.8194,-1.065
0.8222,-1.09
0.825,-1.105
0.8278,-1.11
0.8306,-1.1
0.8333,-1.1
0.8361,-1.1
0.8389,-1.075
0.8417,-1.065
0.8444,-1.045
0.8472,-1.025
0.85,-1.0
0.8528,-0.98
0.8556,-0.945
0.8583,-0.915
0.8611,-0.895
0.8639,-0.88
0.8667,-0.85
0.8694,-0.805
0.8722,-0.75
0.875,-0.695
0.8778,-0.63
0.8806,-0.59
0.8833,-0.55
0.8861,-0.515
0.8889,-0.505
0.8917,-0.45
0.8944,-0.4
0.8972,-0.365
0.9,-0.315
0.9028,-0.275
0.9056,-0.23
0.9083,-0.185
0.9111,-0.145
0.9139,-0.105
0.9167,-0.06
0.9194,-0.02
0.9222,0.0
0.925,-0.015
0.9278,-0.015
0.9306,-0.02
0.9333,-0.015
0.9361,-0.005
0.9389,0.0
0.9417,0.0
0.9444,-0.005
0.9472,-0.015
0.95,-0.04
0.9528,-0.075
0.9556,-0.09
0.9583,-0.11
0.9611,-0.135
0.9639,-0.17
0.9667,-0.195
0.9694,-0.205
0.9722,-0.24
0.975,-0.245
0.9778,-0.25
0.9806,-0.25
0.9833,-0.26
0.9861,-0.295
0.9889,-0.325
0.9917,-0.355
0.9944,-0.39
0.9972,-0.41
1.0,-0.43
1.0028,-0.435
1.0056,-0.455
1.0083,-0.46
1.0111,-0.495
1.0139,-0.49
1.0167,-0.515
1.0194,-0.53
1.0222,-0.545
1.025,-0.555
1.0278,-0.575
1.0306,-0.575
1.0333,-0.6
1.0361,-0.6
1.0389,-0.605
1.0417,-0.605
1.0444,-0.585
1.0472,-0.555
1.05,-0.555
1.0528,-0.555
1.0556,-0.565
1.0583,-0.59
1.0611,-0.6
1.0639,-0.6
1.0667,-0.605
1.0694,-0.595
1.0722,-0.595
1.075,-0.575
1.0778,-0.595
1.0806,-0.59
1.0833,-0.585
1.0861,-0.59
1.0889,-0.6
1.0917,-0.6
1.0944,-0.595
1.0972,-0.605
1.1,-0.63
1.1028,-0.63
1.1056,-0.625
1.1083,-0.595
1.1111,-0.58
1.1139,-0.56
1.1167,-0.565
1.1194,-0.575
1.1222,-0.6
1.125,-0.62
1.1278,-0.64
1.1306,-0.615
1.1333,-0.61
1.1361,-0.6
1.1389,-0.58
1.1417,-0.575
1.1444,-0.565
1.1472,-0.555
1.15,-0.55
1.1528,-0.545
1.1556,-0.555
1.1583,-0.555
1.1611,-0.545
1.1639,-0.555
1.1667,-0.55
1.1694,-0.535
1.1722,-0.495
1.175,-0.455
1.1778,-0.405
1.1806,-0.365
1.1833,-0.34
1.1861,-0.325
1.1889,-0.32
1.1917,-0.315
1.1944,-0.315
1.1972,-0.3
1.2,-0.29
1.2028,-0.28
1.2056,-0.285
1.2083,-0.29
1.2111,-0.305
1.2139,-0.34
1.2167,-0.39
1.2194,-0.445
1.2222,-0.5
1.225,-0.565
1.2278,-0.615
1.2306,-0.66
1.2333,-0.695
1.2361,-0.7
1.2389,-0.68
1.2417,-0.665
1.2444,-0.645
1.2472,-0.625
1.25,-0.63
1.2528,-0.63
1.2556,-0.655
1.2583,-0.665
1.2611,-0.675
1.2639,-0.68
1.2667,-0.675
1.2694,-0.665
1.2722,-0.66
1.275,-0.66
1.2778,-0.66
1.2806,-0.66
1.2833,-0.675
1.2861,-0.665
1.2889,-0.68
1.2917,-0.685
1.2944,-0.72
1.2972,-0.745
1.3,-0.735
1.3028,-0.67
1.3056,-0.53
1.3083,-0.295
1.3111,-0.01
1.3139,0.35
1.3167,0.77
1.3194,1.22
1.3222,1.61
1.325,1.885
1.3278,1.975
1.3306,1.865
1.3333,1.58
1.3361,1.195
1.3389,0.755
1.3417,0.31
1.3444,-0.11
1.3472,-0.52
1.35,-0.88
1.3528,-1.15
1.3556,-1.31
1.3583,-1.32
1.3611,-1.235
1.3639,-1.11
1.3667,-0.985
1.3694,-0.895
1.3722,-0.86
1.375,-0.875
1.3778,-0.91
1.3806,-0.955
1.3833,-0.995
1.3861,-1.02
1.3889,-1.025
1.3917,-1.02
1.3944,-1.02
1.3972,-1.03
1.4,-1.04
1.4028,-1.055
1.4056,-1.07
1.4083,-1.08
1.4111,-1.085
1.4139,-1.085
1.4167,-1.075
1.4194,-1.08
1.4222,-1.085
1.425,-1.1
1.4278,-1.12
1.4306,-1.125
1.4333,-1.125
1.4361,-1.125
1.4389,-1.11
1.4417,-1.085
1.4444,-1.065
1.4472,-1.085
1.45,-1.07
1.4528,-1.05
1.4556,-1.045
1.4583,-1.03
1.4611,-1.025
1.4639,-1.005
1.4667,-0.99
1.4694,-0.99
1.4722,-0.975
1.475,-0.95
1.4778,-0.92
1.4806,-0.89
1.4833,-0.855
1.4861,-0.82
1.4889,-0.825
1.4917,-0.805
1.4944,-0.795
1.4972,-0.77
1.5,-0.75
1.5028,-0.705
1.5056,-0.645
1.5083,-0.615
1.5111,-0.58
1.5139,-0.545
1.5167,-0.51
1.5194,-0.485
1.5222,-0.44
1.525,-0.4
1.5278,-0.375
1.5306,-0.345
1.5333,-0.315
1.5361,-0.295
1.5389,-0.265
1.5417,-0.22
1.5444,-0.175
1.5472,-0.13
1.55,-0.085
1.5528,-0.055
1.5556,-0.02
1.5583,0.0
1.5611,0.015
1.5639,0.03
1.5667,0.055
1.5694,0.085
1.5722,0.135
1.575,0.14
1.5778,0.18
1.5806,0.185
1.5833,0.19
1.5861,0.185
1.5889,0.2
1.5917,0.22
1.5944,0.215
1.5972,0.215
1.6,0.195
1.6028,0.19
1.6056,0.165
1.6083,0.155
1.6111,0.15
1.6139,0.155
1.6167,0.125
1.6194,0.105
1.6222,0.085
1.625,0.045
1.6278,0.0
1.6306,-0.035
1.6333,-0.05
1.6361,-0.09
1.6389,-0.105
1.6417,-0.13
1.6444,-0.145
1.6472,-0.17
1.65,-0.205
1.6528,-0.235
1.6556,-0.265
1.6583,-0.275
1.6611,-0.3
1.6639,-0.32
1.6667,-0.35
1.6694,-0.36
1.6722,-0.375
1.675,-0.38
1.6778,-0.36
1.6806,-0.345
1.6833,-0.345
1.6861,-0.335
1.6889,-0.35
1.6917,-0.375
1.6944,-0.39
1.6972,-0.4
1.7,-0.39
1.7028,-0.37
1.7056,-0.34
1.7083,-0.31
1.7111,-0.285
1.7139,-0.25
1.7167,-0.23
1.7194,-0.215
1.7222,-0.2
1.725,-0.18
1.7278,-0.16
1.7306,-0.155
1.7333,-0.15
1.7361,-0.145
1.7389,-0.15
1.7417,-0.14
1.7444,-0.145
1.7472,-0.16
1.75,-0.2
1.7528,-0.25
1.7556,-0.315
1.7583,-0.4
1.7611,-0.455
1.7639,-0.505
1.7667,-0.54
1.7694,-0.55
1.7722,-0.575
1.775,-0.56
1.7778,-0.565
1.7806,-0.57
1.7833,-0.565
1.7861,-0.57
1.7889,-0.58
1.7917,-0.575
1.7944,-0.58
1.7972,-0.585
1.8,-0.605
1.8028,-0.605
1.8056,-0.595
1.8083,-0.585
1.8111,-0.57
1.8139,-0.565
1.8167,-0.545
1.8194,-0.545
1.8222,-0.555
1.825,-0.565
1.8278,-0.585
1.8306,-0.595
1.8333,-0.61
1.8361,-0.62
1.8389,-0.63
1.8417,-0.62
1.8444,-0.555
1.8472,-0.415
1.85,-0.21
1.8528,0.035
1.8556,0.345
1.8583,0.69
1.8611,1.06
1.8639,1.43
1.8667,1.745
1.8694,1.9
1.8722,1.85
1.875,1.635
1.8778,1.29
1.8806,0.855
1.8833,0.395
1.8861,-0.045
1.8889,-0.445
1.8917,-0.77
1.8944,-1.04
1.8972,-1.22
1.9,-1.31
1.9028,-1.3
1.9056,-1.19
1.9083,-1.06
1.9111,-0.93
1.9139,-0.845
1.9167,-0.805
1.9194,-0.82
1.9222,-0.845
1.925,-0.885
1.9278,-0.92
1.9306,-0.95
1.9333,-0.965
1.9361,-0.975
1.9389,-0.99
1.9417,-0.98
1.9444,-0.985
1.9472,-0.965
1.95,-0.965
1.9528,-0.965
1.9556,-0.985
1.9583,-0.995
1.9611,-1.03
1.9639,-1.05
1.9667,-1.06
1.9694,-1.055
1.9722,-1.06
1.975,-1.055
1.9778,-1.065
1.9806,-1.055
1.9833,-1.06
1.9861,-1.06
1.9889,-1.055
1.9917,-1.045
1.9944,-1.04
1.9972,-1.05
2.0,-1.055
2.0028,-1.06
2.0056,-1.055
2.0083,-1.035
2.0111,-1.015
2.0139,-0.995
2.0167,-0.955
2.0194,-0.925
2.0222,-0.91
2.025,-0.91
2.0278,-0.875
2.0306,-0.87
2.0333,-0.835
2.0361,-0.795
2.0389,-0.745
2.0417,-0.705
2.0444,-0.655
2.0472,-0.635
2.05,-0.6
2.0528,-0.57
2.0556,-0.535
2.0583,-0.505
2.0611,-0.46
2.0639,-0.41
2.0667,-0.37
2.0694,-0.335
2.0722,-0.285
2.075,-0.245
2.0778,-0.205
2.0806,-0.155
2.0833,-0.105
2.0861,-0.055
2.0889,-0.025
2.0917,0.0
2.0944,0.02
2.0972,0.04
2.1,0.06
2.1028,0.09
2.1056,0.12
2.1083,0.155
2.1111,0.185
2.1139,0.21
2.1167,0.21
2.1194,0.2
2.1222,0.21
2.125,0.185
2.1278,0.2
2.1306,0.195
2.1333,0.19
2.1361,0.19
2.1389,0.17
2.1417,0.16
2.1444,0.14
2.1472,0.135
2.15,0.12
2.1528,0.1
2.1556,0.095
2.1583,0.075
2.1611,0.04
2.1639,0.005
2.1667,-0.025
2.1694,-0.05
2.1722,-0.075
2.175,-0.08
2.1778,-0.095
2.1806,-0.095
2.1833,-0.115
2.1861,-0.145
2.1889,-0.18
2.1917,-0.21
2.1944,-0.245
2.1972,-0.27
2.2,-0.275
2.2028,-0.305
2.2056,-0.325
2.2083,-0.345
2.2111,-0.365
2.2139,-0.38
2.2167,-0.39
2.2194,-0.4
2.2222,-0.41
2.225,-0.42
2.2278,-0.435
2.2306,-0.445
2.2333,-0.47
2.2361,-0.485
2.2389,-0.49
2.2417,-0.495
2.2444,-0.485
2.2472,-0.475
2.25,-0.45
2.2528,-0.435
2.2556,-0.43
2.2583,-0.41
2.2611,-0.385
2.2639,-0.345
2.2667,-0.32
2.2694,-0.29
2.2722,-0.26
2.275,-0.24
2.2778,-0.225
2.2806,-0.215
2.2833,-0.195
2.2861,-0.19
2.2889,-0.185
2.2917,-0.19
2.2944,-0.195
2.2972,-0.215
2.3,-0.26
2.3028,-0.32
2.3056,-0.375
2.3083,-0.435
2.3111,-0.47
2.3139,-0.505
2.3167,-0.54
2.3194,-0.57
2.3222,-0.59
2.325,-0.62
2.3278,-0.63
2.3306,-0.63
2.3333,-0.635
2.3361,-0.61
2.3389,-0.6
2.3417,-0.595
2.3444,-0.58
2.3472,-0.59
2.35,-0.595
2.3528,-0.61
2.3556,-0.605
2.3583,-0.615
2.3611,-0.61
2.3639,-0.595
2.3667,-0.595
2.3694,-0.595
2.3722,-0.59
2.375,-0.59
2.3778,-0.58
2.3806,-0.57
2.3833,-0.565
2.3861,-0.57
2.3889,-0.585
2.3917,-0.605
2.3944,-0.605
2.3972,-0.58
2.4,-0.46
2.4028,-0.27
2.4056,-0.025
2.4083,0.295
2.4111,0.695
2.4139,1.095
2.4167,1.495
2.4194,1.82
2.4222,2.025
2.425,2.055
2.4278,1.89
2.4306,1.585
2.4333,1.175
2.4361,0.72
2.4389,0.265
2.4417,-0.14
2.4444,-0.485
2.4472,-0.77
2.45,-0.985
2.4528,-1.125
2.4556,-1.185
2.4583,-1.155
2.4611,-1.075
2.4639,-0.975
2.4667,-0.865
2.4694,-0.775
2.4722,-0.72
2.475,-0.73
2.4778,-0.73
2.4806,-0.755
2.4833,-0.78
2.4861,-0.8
2.4889,-0.82
2.4917,-0.85
2.4944,-0.865
2.4972,-0.865
2.5,-0.86
2.5028,-0.855
2.5056,-0.855
2.5083,-0.855
2.5111,-0.85
2.5139,-0.86
2.5167,-0.86
2.5194,-0.865
2.5222,-0.885
2.525,-0.88
2.5278,-0.885
2.5306,-0.89
2.5333,-0.905
2.5361,-0.91
2.5389,-0.915
2.5417,-0.915
2.5444,-0.91
2.5472,-0.89
2.55,-0.875
2.5528,-0.86
2.5556,-0.855
2.5583,-0.87
2.5611,-0.87
2.5639,-0.86
2.5667,-0.845
2.5694,-0.825
2.5722,-0.79
2.575,-0.76
2.5778,-0.725
2.5806,-0.7
2.5833,-0.69
2.5861,-0.665
2.5889,-0.64
2.5917,-0.61
2.5944,-0.58
2.5972,-0.55
2.6,-0.52
2.6028,-0.485
2.6056,-0.45
2.6083,-0.42
2.6111,-0.38
2.6139,-0.345
2.6167,-0.305
2.6194,-0.27
2.6222,-0.225
2.625,-0.21
2.6278,-0.175
2.6306,-0.15
2.6333,-0.125
2.6361,-0.085
2.6389,-0.035
2.6417,0.025
2.6444,0.08
2.6472,0.12
2.65,0.155
2.6528,0.18
2.6556,0.195
2.6583,0.21
2.6611,0.235
2.6639,0.265
2.6667,0.28
2.6694,0.29
2.6722,0.305
2.675,0.3
2.6778,0.305
2.6806,0.325
2.6833,0.33
2.6861,0.34
2.6889,0.335
2.6917,0.32
2.6944,0.305
2.6972,0.27
2.7,0.24
2.7028,0.225
2.7056,0.21
2.7083,0.225
2.7111,0.225
2.7139,0.215
2.7167,0.195
2.7194,0.16
2.7222,0.11
2.725,0.075
2.7278,0.04
2.7306,0.025
2.7333,-0.005
2.7361,-0.03
2.7389,-0.045
2.7417,-0.06
2.7444,-0.065
2.7472,-0.08
2.75,-0.115
2.7528,-0.14
2.7556,-0.16
2.7583,-0.2
2.7611,-0.235
2.7639,-0.29
2.7667,-0.315
2.7694,-0.345
2.7722,-0.37
2.775,-0.375
2.7778,-0.38
2.7806,-0.38
2.7833,-0.39
2.7861,-0.42
2.7889,-0.46
2.7917,-0.46
2.7944,-0.46
2.7972,-0.48
2.8,-0.465
2.8028,-0.455
2.8056,-0.465
2.8083,-0.465
2.8111,-0.465
2.8139,-0.47
2.8167,-0.475
2.8194,-0.445
2.8222,-0.43
2.825,-0.395
2.8278,-0.355
2.8306,-0.35
2.8333,-0.325
2.8361,-0.31
2.8389,-0.275
2.8417,-0.245
2.8444,-0.19
2.8472,-0.15
2.85,-0.12
2.8528,-0.1
2.8556,-0.105
2.8583,-0.11
2.8611,-0.13
2.8639,-0.145
2.8667,-0.18
2.8694,-0.215
2.8722,-0.265
2.875,-0.325
2.8778,-0.39
2.8806,-0.445
2.8833,-0.505
2.8861,-0.535
2.8889,-0.565
2.8917,-0.565
2.8944,-0.57
2.8972,-0.555
2.9,-0.565
2.9028,-0.57
2.9056,-0.57
2.9083,-0.57
2.9111,-0.565
2.9139,-0.555
2.9167,-0.545
2.9194,-0.555
2.9222,-0.565
2.925,-0.585
2.9278,-0.59
2.9306,-0.605
2.9333,-0.59
2.9361,-0.585
2.9389,-0.56
2.9417,-0.555
2.9444,-0.56
2.9472,-0.565
2.95,-0.585
2.9528,-0.615
2.9556,-0.62
2.9583,-0.62
2.9611,-0.59
2.9639,-0.48
2.9667,-0.305
2.9694,-0.06
2.9722,0.2
2.975,0.505
2.9778,0.855
2.9806,1.215
2.9833,1.56
2.9861,1.81
2.9889,1.88
2.9917,1.76
2.9944,1.45
2.9972,1.015
3.0,0.52
3.0028,0.035
3.0056,-0.39
3.0083,-0.76
3.0111,-1.055
3.0139,-1.31
3.0167,-1.46
3.0194,-1.5
3.0222,-1.43
3.025,-1.305
3.0278,-1.15
3.0306,-1.015
3.0333,-0.93
3.0361,-0.905
3.0389,-0.91
3.0417,-0.915
3.0444,-0.935
3.0472,-0.945
3.05,-0.97
3.0528,-0.98
3.0556,-0.995
3.0583,-1.01
3.0611,-1.015
3.0639,-1.01
3.0667,-1.015
3.0694,-1.02
3.0722,-1.015
3.075,-1.025
3.0778,-1.025
3.0806,-1.025
3.0833,-1.02
3.0861,-1.015
3.0889,-1.015
3.0917,-1.015
3.0944,-1.02
3.0972,-1.025
3.1,-1.045
3.1028,-1.03
3.1056,-1.02
3.1083,-1.0
3.1111,-0.975
3.1139,-0.96
3.1167,-0.945
3.1194,-0.935
3.1222,-0.935
3.125,-0.935
3.1278,-0.91
3.1306,-0.885
3.1333,-0.855
3.1361,-0.82
3.1389,-0.79
3.1417,-0.775
3.1444,-0.745
3.1472,-0.72
3.15,-0.695
3.1528,-0.675
3.1556,-0.625
3.1583,-0.605
3.1611,-0.595
3.1639,-0.575
3.1667,-0.56
3.1694,-0.53
3.1722,-0.47
3.175,-0.43
3.1778,-0.375
3.1806,-0.335
3.1833,-0.295
3.1861,-0.27
3.1889,-0.25
3.1917,-0.22
3.1944,-0.18
3.1972,-0.14
3.2,-0.115
3.2028,-0.065
3.2056,-0.025
3.2083,-0.015
3.2111,0.015
3.2139,0.03
3.2167,0.04
3.2194,0.05
3.2222,0.07
3.225,0.085
3.2278,0.095
3.2306,0.095
3.2333,0.095
3.2361,0.095
3.2389,0.09
3.2417,0.11
3.2444,0.115
3.2472,0.105
3.25,0.1
3.2528,0.07
3.2556,0.035
3.2583,0.005
3.2611,-0.03
3.2639,-0.06
3.2667,-0.08
3.2694,-0.1
3.2722,-0.1
3.275,-0.13
3.2778,-0.15
3.2806,-0.185
3.2833,-0.215
3.2861,-0.255
3.2889,-0.28
3.2917,-0.29
3.2944,-0.31
3.2972,-0.345
3.3,-0.375
3.3028,-0.385
3.3056,-0.415
3.3083,-0.44
3.3111,-0.435
3.3139,-0.45
3.3167,-0.465
3.3194,-0.49
3.3222,-0.52
3.325,-0.545
3.3278,-0.585
3.3306,-0.595
3.3333,-0.605
3.3361,-0.59
3.3389,-0.575
3.3417,-0.58
3.3444,-0.57
3.3472,-0.57
3.35,-0.57
3.3528,-0.575
3.3556,-0.58
3.3583,-0.57
3.3611,-0.565
3.3639,-0.555
3.3667,-0.55
3.3694,-0.525
3.3722,-0.515
3.375,-0.475
3.3778,-0.42
3.3806,-0.385
3.3833,-0.335
3.3861,-0.32
3.3889,-0.3
3.3917,-0.305
3.3944,-0.31
3.3972,-0.305
3.4,-0.285
3.4028,-0.265
3.4056,-0.25
3.4083,-0.255
3.4111,-0.265
3.4139,-0.3
3.4167,-0.35
3.4194,-0.42
3.4222,-0.485
3.425,-0.535
3.4278,-0.58
3.4306,-0.62
3.4333,-0.66
3.4361,-0.67
3.4389,-0.675
3.4417,-0.675
3.4444,-0.67
3.4472,-0.655
3.45,-0.66
3.4528,-0.645
3.4556,-0.67
3.4583,-0.695
3.4611,-0.695
3.4639,-0.705
3.4667,-0.71
3.4694,-0.685
3.4722,-0.67
3.475,-0.665
3.4778,-0.66
3.4806,-0.67
3.4833,-0.675
3.4861,-0.675
3.4889,-0.675
3.4917,-0.685
3.4944,-0.685
3.4972,-0.715
3.5,-0.735
3.5028,-0.755
3.5056,-0.75
3.5083,-0.69
3.5111,-0.55
3.5139,-0.33
3.5167,-0.035
3.5194,0.29
3.5222,0.655
3.525,1.02
3.5278,1.36
3.5306,1.645
3.5333,1.825
3.5361,1.86
3.5389,1.725
3.5417,1.43
3.5444,1.045
3.5472,0.605
3.55,0.11
3.5528,-0.33
3.5556,-0.735
3.5583,-1.045
3.5611,-1.305
3.5639,-1.46
3.5667,-1.495
3.5694,-1.42
3.5722,-1.3
3.575,-1.165
3.5778,-1.045
3.5806,-0.96
3.5833,-0.935
3.5861,-0.945
3.5889,-0.975
3.5917,-1.02
3.5944,-1.06
3.5972,-1.085
3.6,-1.095
3.6028,-1.09
3.6056,-1.075
3.6083,-1.075
3.6111,-1.07
3.6139,-1.065
3.6167,-1.085
3.6194,-1.115
3.6222,-1.125
3.625,-1.14
3.6278,-1.13
3.6306,-1.14
3.6333,-1.125
3.6361,-1.13
3.6389,-1.13
3.6417,-1.145
3.6444,-1.15
3.6472,-1.15
3.65,-1.15
3.6528,-1.13
3.6556,-1.14
3.6583,-1.14
3.6611,-1.165
3.6639,-1.155
3.6667,-1.145
3.6694,-1.13
3.6722,-1.115
3.675,-1.095
3.6778,-1.065
3.6806,-1.04
3.6833,-1.04
3.6861,-1.025
3.6889,-1.015
3.6917,-0.995
3.6944,-0.975
3.6972,-0.945
3.7,-0.91
3.7028,-0.88
3.7056,-0.84
3.7083,-0.805
3.7111,-0.77
3.7139,-0.74
3.7167,-0.7
3.7194,-0.655
3.7222,-0.645
3.725,-0.6
3.7278,-0.585
3.7306,-0.555
3.7333,-0.525
3.7361,-0.475
3.7389,-0.41
3.7417,-0.36
3.7444,-0.3
3.7472,-0.265
3.75,-0.225
3.7528,-0.195
3.7556,-0.17
3.7583,-0.125
3.7611,-0.095
3.7639,-0.055
3.7667,-0.025
3.7694,0.005
3.7722,0.035
3.775,0.03
3.7778,0.045
3.7806,0.06
3.7833,0.085
3.7861,0.1
3.7889,0.115
3.7917,0.115
3.7944,0.1
3.7972,0.085
3.8,0.065
3.8028,0.055
3.8056,0.045
3.8083,0.04
3.8111,0.045
3.8139,0.045
3.8167,0.035
3.8194,0.0
3.8222,-0.03
3.825,-0.065
3.8278,-0.1
3.8306,-0.12
3.8333,-0.145
3.8361,-0.155
3.8389,-0.185
3.8417,-0.195
3.8444,-0.22
3.8472,-0.26
3.85,-0.28
3.8528,-0.315
3.8556,-0.33
3.8583,-0.365
3.8611,-0.39
3.8639,-0.42
3.8667,-0.455
3.8694,-0.475
3.8722,-0.505
3.875,-0.505
3.8778,-0.51
3.8806,-0.51
3.8833,-0.51
3.8861,-0.52
3.8889,-0.54
3.8917,-0.545
3.8944,-0.565
3.8972,-0.56
3.9,-0.565
3.9028,-0.55
3.9056,-0.54
3.9083,-0.535
3.9111,-0.52
3.9139,-0.495
3.9167,-0.455
3.9194,-0.415
3.9222,-0.38
3.925,-0.36
3.9278,-0.325
3.9306,-0.32
3.9333,-0.315
3.9361,-0.29
3.9389,-0.27
3.9417,-0.24
3.9444,-0.215
3.9472,-0.225
3.95,-0.235
3.9528,-0.285
3.9556,-0.34
3.9583,-0.405
3.9611,-0.47
3.9639,-0.535
3.9667,-0.595
3.9694,-0.625
3.9722,-0.67
3.975,-0.71
3.9778,-0.705
3.9806,-0.71
3.9833,-0.705
3.9861,-0.705
3.9889,-0.7
3.9917,-0.7
3.9944,-0.72
3.9972,-0.735
4.0,-0.75
4.0028,-0.75
4.0056,-0.74
4.0083,-0.72
4.0111,-0.695
4.0139,-0.68
4.0167,-0.685
4.0194,-0.69
4.0222,-0.71
4.025,-0.705
4.0278,-0.72
4.0306,-0.71
4.0333,-0.74
4.0361,-0.74
4.0389,-0.755
4.0417,-0.78
4.0444,-0.79
4.0472,-0.75
4.05,-0.645
4.0528,-0.48
4.0556,-0.24
4.0583,0.07
4.0611,0.43
4.0639,0.855
4.0667,1.27
4.0694,1.64
4.0722,1.82
4.075,1.76
4.0778,1.515
4.0806,1.135
4.0833,0.66
4.0861,0.2
4.0889,-0.23
4.0917,-0.59
4.0944,-0.89
4.0972,-1.14
4.1,-1.315
4.1028,-1.405
4.1056,-1.395
4.1083,-1.3
4.1111,-1.16
4.1139,-1.02
4.1167,-0.935
4.1194,-0.91
4.1222,-0.935
4.125,-0.975
4.1278,-1.025
4.1306,-1.08
4.1333,-1.095
4.1361,-1.09
4.1389,-1.07
4.1417,-1.065
4.1444,-1.055
4.1472,-1.05
4.15,-1.075
4.1528,-1.095
4.1556,-1.105
4.1583,-1.125
4.1611,-1.135
4.1639,-1.135
4.1667,-1.145
4.1694,-1.15
4.1722,-1.175
4.175,-1.17
4.1778,-1.16
4.1806,-1.15
4.1833,-1.145
4.1861,-1.135
4.1889,-1.15
4.1917,-1.15
4.1944,-1.17
4.1972,-1.175
4.2,-1.175
4.2028,-1.155
4.2056,-1.125
4.2083,-1.105
4.2111,-1.085
4.2139,-1.07
4.2167,-1.065
4.2194,-1.045
4.2222,-1.03
4.225,-1.0
4.2278,-0.97
4.2306,-0.94
4.2333,-0.905
4.2361,-0.875
4.2389,-0.835
4.2417,-0.77
4.2444,-0.715
4.2472,-0.665
4.25,-0.61
4.2528,-0.575
4.2556,-0.545
4.2583,-0.51
4.2611,-0.48
4.2639,-0.435
4.2667,-0.39
4.2694,-0.335
4.2722,-0.285
4.275,-0.255
4.2778,-0.215
4.2806,-0.175
4.2833,-0.105
4.2861,-0.06
4.2889,-0.025
4.2917,0.015
4.2944,0.02
4.2972,0.03
4.3,0.035
4.3028,0.055
4.3056,0.055
4.3083,0.095
4.3111,0.11
4.3139,0.115
4.3167,0.115
4.3194,0.085
4.3222,0.06
4.325,0.04
4.3278,0.02
4.3306,0.025
4.3333,0.005
4.3361,-0.015
4.3389,-0.035
4.3417,-0.05
4.3444,-0.07
4.3472,-0.09
4.35,-0.095
4.3528,-0.115
4.3556,-0.14
4.3583,-0.165
4.3611,-0.205
4.3639,-0.25
4.3667,-0.275
4.3694,-0.305
4.3722,-0.305
4.375,-0.325
4.3778,-0.34
4.3806,-0.36
4.3833,-0.4
4.3861,-0.425
4.3889,-0.44
4.3917,-0.455
4.3944,-0.48
4.3972,-0.485
4.4,-0.515
4.4028,-0.53
4.4056,-0.55
4.4083,-0.57
4.4111,-0.58
4.4139,-0.58
4.4167,-0.575
4.4194,-0.575
4.4222,-0.59
4.425,-0.595
4.4278,-0.6
4.4306,-0.59
4.4333,-0.58
4.4361,-0.53
4.4389,-0.48
4.4417,-0.435
4.4444,-0.4
4.4472,-0.37
4.45,-0.345
4.4528,-0.335
4.4556,-0.3
4.4583,-0.27
4.4611,-0.25
4.4639,-0.235
4.4667,-0.245
4.4694,-0.255
4.4722,-0.265
4.475,-0.295
4.4778,-0.335
4.4806,-0.385
4.4833,-0.44
4.4861,-0.495
4.4889,-0.55
4.4917,-0.585
4.4944,-0.625
4.4972,-0.64
4.5,-0.64
4.5028,-0.62
4.5056,-0.62
4.5083,-0.62
4.5111,-0.625
4.5139,-0.605
4.5167,-0.605
4.5194,-0.615
4.5222,-0.625
4.525,-0.625
4.5278,-0.635
4.5306,-0.65
4.5333,-0.66
4.5361,-0.65
4.5389,-0.645
4.5417,-0.635
4.5444,-0.605
4.5472,-0.575
4.55,-0.57
4.5528,-0.575
4.5556,-0.585
4.5583,-0.61
4.5611,-0.645
4.5639,-0.665
4.5667,-0.675
4.5694,-0.655
4.5722,-0.59
4.575,-0.435
4.5778,-0.22
4.5806,0.035
4.5833,0.38
4.5861,0.75
4.5889,1.14
4.5917,1.52
4.5944,1.775
4.5972,1.82
4.6,1.625
4.6028,1.275
4.6056,0.845
4.6083,0.375
4.6111,-0.04
4.6139,-0.405
4.6167,-0.7
4.6194,-0.945
4.6222,-1.135
4.625,-1.29
4.6278,-1.345
4.6306,-1.335
4.6333,-1.24
4.6361,-1.115
4.6389,-0.965
4.6417,-0.88
4.6444,-0.845
4.6472,-0.855
4.65,-0.885
4.6528,-0.93
4.6556,-0.96
4.6583,-0.98
4.6611,-0.99
4.6639,-0.99
4.6667,-0.98
4.6694,-0.985
4.6722,-1.005
4.675,-1.015
4.6778,-1.005
4.6806,-1.0
4.6833,-0.99
4.6861,-0.99
4.6889,-1.015
4.6917,-1.03
4.6944,-1.045
4.6972,-1.04
4.7,-1.045
4.7028,-1.025
4.7056,-1.01
4.7083,-0.995
4.7111,-1.005
4.7139,-1.02
4.7167,-1.01
4.7194,-0.995
4.7222,-0.99
4.725,-0.99
4.7278,-0.975
4.7306,-0.95
4.7333,-0.95
4.7361,-0.925
4.7389,-0.905
4.7417,-0.88
4.7444,-0.865
4.7472,-0.84
4.75,-0.795
4.7528,-0.77
4.7556,-0.75
4.7583,-0.715
4.7611,-0.695
4.7639,-0.67
4.7667,-0.635
4.7694,-0.57
4.7722,-0.52
4.775,-0.5
4.7778,-0.45
4.7806,-0.405
4.7833,-0.375
4.7861,-0.35
4.7889,-0.335
4.7917,-0.3
4.7944,-0.245
4.7972,-0.22
4.8,-0.185
4.8028,-0.16
4.8056,-0.125
4.8083,-0.08
4.8111,-0.03
4.8139,0.01
4.8167,0.055
4.8194,0.095
4.8222,0.11
4.825,0.125
4.8278,0.125
4.8306,0.14
4.8333,0.14
4.8361,0.16
4.8389,0.18
4.8417,0.19
4.8444,0.205
4.8472,0.205
4.85,0.195
4.8528,0.19
4.8556,0.175
4.8583,0.16
4.8611,0.15
4.8639,0.135
4.8667,0.095
4.8694,0.065
4.8722,0.05
4.875,0.025
4.8778,0.01
4.8806,0.015
4.8833,0.01
4.8861,-0.005
4.8889,-0.03
4.8917,-0.07
4.8944,-0.11
4.8972,-0.155
4.9,-0.19
4.9028,-0.21
4.9056,-0.23
4.9083,-0.25
4.9111,-0.28
4.9139,-0.305
4.9167,-0.32
4.9194,-0.355
4.9222,-0.385
4.925,-0.415
4.9278,-0.42
4.9306,-0.455
4.9333,-0.47
4.9361,-0.5
4.9389,-0.525
4.9417,-0.535
4.9444,-0.54
4.9472,-0.54
4.95,-0.53
4.9528,-0.535
4.9556,-0.555
4.9583,-0.58
4.9611,-0.6
4.9639,-0.605
4.9667,-0.6
4.9694,-0.59
4.9722,-0.57
4.975,-0.55
4.9778,-0.53
4.9806,-0.51
4.9833,-0.475
4.9861,-0.44
4.9889,-0.4
4.9917,-0.365
4.9944,-0.34
4.9972,-0.325
5.0,-0.3
5.0028,-0.28
5.0056,-0.24
5.0083,-0.205
5.0111,-0.18
5.0139,-0.17
5.0167,-0.185
5.0194,-0.235
5.0222,-0.3
5.025,-0.38
5.0278,-0.46
5.0306,-0.525
5.0333,-0.57
5.0361,-0.6
5.0389,-0.63
5.0417,-0.645
5.0444,-0.655
5.0472,-0.655
5.05,-0.66
5.0528,-0.645
5.0556,-0.63
5.0583,-0.635
5.0611,-0.655
5.0639,-0.66
5.0667,-0.68
5.0694,-0.675
5.0722,-0.67
5.075,-0.64
5.0778,-0.63
5.0806,-0.625
5.0833,-0.62
5.0861,-0.62
5.0889,-0.64
5.0917,-0.655
5.0944,-0.65
5.0972,-0.665
5.1,-0.675
5.1028,-0.685
5.1056,-0.7
5.1083,-0.72
5.1111,-0.7
5.1139,-0.6
5.1167,-0.415
5.1194,-0.145
5.1222,0.18
5.125,0.56
5.1278,0.96
5.1306,1.345
5.1333,1.675
5.1361,1.86
5.1389,1.825
5.1417,1.59
5.1444,1.21
5.1472,0.75
5.15,0.27
5.1528,-0.16
5.1556,-0.525
5.1583,-0.825
5.1611,-1.08
5.1639,-1.285
5.1667,-1.425
5.1694,-1.46
5.1722,-1.41
5.175,-1.305
5.1778,-1.165
5.1806,-1.045
5.1833,-0.965
5.1861,-0.93
5.1889,-0.93
5.1917,-0.96
5.1944,-1.0
5.1972,-1.04
5.2,-1.065
5.2028,-1.07
5.2056,-1.06
5.2083,-1.05
5.2111,-1.045
5.2139,-1.045
5.2167,-1.025
5.2194,-1.04
5.2222,-1.06
5.225,-1.08
5.2278,-1.095
5.2306,-1.09
5.2333,-1.1
5.2361,-1.1
5.2389,-1.09
5.2417,-1.095
5.2444,-1.085
5.2472,-1.085
5.25,-1.07
5.2528,-1.05
5.2556,-1.045
5.2583,-1.045
5.2611,-1.045
5.2639,-1.055
5.2667,-1.06
5.2694,-1.045
5.2722,-1.025
5.275,-0.995
5.2778,-0.975
5.2806,-0.95
5.2833,-0.935
5.2861,-0.92
5.2889,-0.91
5.2917,-0.905
5.2944,-0.88
5.2972,-0.85
5.3,-0.82
5.3028,-0.78
5.3056,-0.745
5.3083,-0.725
5.3111,-0.69
5.3139,-0.65
5.3167,-0.61
5.3194,-0.575
5.3222,-0.53
5.325,-0.495
5.3278,-0.47
5.3306,-0.445
5.3333,-0.425
5.3361,-0.395
5.3389,-0.36
5.3417,-0.32
5.3444,-0.285
5.3472,-0.23
5.35,-0.21
5.3528,-0.17
5.3556,-0.145
5.3583,-0.115
5.3611,-0.09
5.3639,-0.065
5.3667,-0.035
5.3694,-0.01
5.3722,0.02
5.375,0.035
5.3778,0.05
5.3806,0.055
5.3833,0.07
5.3861,0.07
5.3889,0.085
5.3917,0.085
5.3944,0.06
5.3972,0.05
5.4,0.02
5.4028,0.005
5.4056,-0.015
5.4083,-0.015
5.4111,-0.015
5.4139,-0.02
5.4167,-0.035
5.4194,-0.065
5.4222,-0.11
5.425,-0.145
5.4278,-0.17
5.4306,-0.21
5.4333,-0.22
5.4361,-0.23
5.4389,-0.27
5.4417,-0.285
5.4444,-0.32
5.4472,-0.345
5.45,-0.36
5.4528,-0.38
5.4556,-0.4
5.4583,-0.425
5.4611,-0.46
5.4639,-0.49
5.4667,-0.53
5.4694,-0.53
5.4722,-0.535
5.475,-0.55
5.4778,-0.555
5.4806,-0.555
5.4833,-0.58
5.4861,-0.595
5.4889,-0.62
5.4917,-0.625
5.4944,-0.635
5.4972,-0.625
5.5,-0.605
5.5028,-0.58
5.5056,-0.555
5.5083,-0.55
5.5111,-0.545
5.5139,-0.54
5.5167,-0.515
5.5194,-0.495
5.5222,-0.46
5.525,-0.43
5.5278,-0.43
5.5306,-0.42
5.5333,-0.405
5.5361,-0.395
5.5389,-0.355
5.5417,-0.335
5.5444,-0.285
5.5472,-0.245
5.55,-0.22
5.5528,-0.23
5.5556,-0.24
5.5583,-0.27
5.5611,-0.32
5.5639,-0.385
5.5667,-0.45
5.5694,-0.495
5.5722,-0.555
5.575,-0.585
5.5778,-0.625
5.5806,-0.66
5.5833,-0.68
5.5861,-0.69
5.5889,-0.695
5.5917,-0.695
5.5944,-0.685
5.5972,-0.685
5.6,-0.69
5.6028,-0.705
5.6056,-0.715
5.6083,-0.725
5.6111,-0.71
5.6139,-0.69
5.6167,-0.69
5.6194,-0.69
5.6222,-0.68
5.625,-0.69
5.6278,-0.695
5.6306,-0.72
5.6333,-0.73
5.6361,-0.735
5.6389,-0.735
5.6417,-0.715
5.6444,-0.725
5.6472,-0.705
5.65,-0.725
5.6528,-0.75
5.6556,-0.745
5.6583,-0.72
5.6611,-0.635
5.6639,-0.47
5.6667,-0.23
5.6694,0.07
5.6722,0.43
5.675,0.84
5.6778,1.265
5.6806,1.64
5.6833,1.9
5.6861,1.955
5.6889,1.81
5.6917,1.47
5.6944,1.03
5.6972,0.55
5.7,0.05
5.7028,-0.385
5.7056,-0.77
5.7083,-1.085
5.7111,-1.31
5.7139,-1.445
5.7167,-1.46
5.7194,-1.385
5.7222,-1.265
5.725,-1.12
5.7278,-1.005
5.7306,-0.955
5.7333,-0.945
5.7361,-0.96
5.7389,-1.0
5.7417,-1.05
5.7444,-1.07
5.7472,-1.08
5.75,-1.07
5.7528,-1.06
5.7556,-1.06
5.7583,-1.075
5.7611,-1.085
5.7639,-1.12
5.7667,-1.12
5.7694,-1.125
5.7722,-1.115
5.775,-1.11
5.7778,-1.105
5.7806,-1.115
5.7833,-1.12
5.7861,-1.135
5.7889,-1.14
5.7917,-1.145
5.7944,-1.145
5.7972,-1.145
5.8,-1.16
5.8028,-1.155
5.8056,-1.165
5.8083,-1.16
5.8111,-1.135
5.8139,-1.115
5.8167,-1.085
5.8194,-1.07
5.8222,-1.06
5.825,-1.06
5.8278,-1.05
5.8306,-1.045
5.8333,-1.035
5.8361,-1.015
5.8389,-0.96
5.8417,-0.93
5.8444,-0.89
5.8472,-0.865
5.85,-0.84
5.8528,-0.825
5.8556,-0.8
5.8583,-0.77
5.8611,-0.735
5.8639,-0.685
5.8667,-0.655
5.8694,-0.605
5.8722,-0.565
5.875,-0.52
5.8778,-0.485
5.8806,-0.445
5.8833,-0.375
5.8861,-0.325
5.8889,-0.285
5.8917,-0.255
5.8944,-0.235
5.8972,-0.22
5.9,-0.17
5.9028,-0.12
5.9056,-0.075
5.9083,-0.03
5.9111,0.005
5.9139,0.035
5.9167,0.04
5.9194,0.065
5.9222,0.07
5.925,0.08
5.9278,0.09
5.9306,0.095
5.9333,0.085
5.9361,0.08
5.9389,0.07
5.9417,0.07
5.9444,0.065
5.9472,0.075
5.95,0.07
5.9528,0.025
5.9556,-0.01
5.9583,-0.04
5.9611,-0.065
5.9639,-0.09
5.9667,-0.11
5.9694,-0.13
5.9722,-0.135
5.975,-0.16
5.9778,-0.185
5.9806,-0.22
5.9833,-0.255
5.9861,-0.29
5.9889,-0.295
5.9917,-0.315
5.9944,-0.345
5.9972,-0.38
6.0,-0.41
6.0028,-0.46
6.0056,-0.475
6.0083,-0.475
6.0111,-0.48
6.0139,-0.49
6.0167,-0.5
6.0194,-0.505
6.0222,-0.53
6.025,-0.55
6.0278,-0.56
6.0306,-0.57
6.0333,-0.57
6.0361,-0.565
6.0389,-0.57
6.0417,-0.57
6.0444,-0.565
6.0472,-0.535
6.05,-0.51
6.0528,-0.48
6.0556,-0.435
6.0583,-0.41
6.0611,-0.385
6.0639,-0.37
6.0667,-0.37
6.0694,-0.35
6.0722,-0.325
6.075,-0.29
6.0778,-0.25
6.0806,-0.24
6.0833,-0.245
6.0861,-0.265
6.0889,-0.3
6.0917,-0.365
6.0944,-0.405
6.0972,-0.46
6.1,-0.51
6.1028,-0.585
6.1056,-0.64
6.1083,-0.665
6.1111,-0.7
6.1139,-0.715
6.1167,-0.715
6.1194,-0.705
6.1222,-0.71
6.125,-0.73
6.1278,-0.73
6.1306,-0.735
6.1333,-0.735
6.1361,-0.735
6.1389,-0.735
6.1417,-0.715
6.1444,-0.71
6.1472,-0.695
6.15,-0.71
6.1528,-0.72
6.1556,-0.735
6.1583,-0.72
6.1611,-0.735
6.1639,-0.73
6.1667,-0.73
6.1694,-0.75
6.1722,-0.76
6.175,-0.765
6.1778,-0.77
6.1806,-0.775
6.1833,-0.76
6.1861,-0.71
6.1889,-0.62
6.1917,-0.465
6.1944,-0.27
6.1972,0.005
6.2,0.345
6.2028,0.745
6.2056,1.165
6.2083,1.55
6.2111,1.79
6.2139,1.84
6.2167,1.635
6.2194,1.28
6.2222,0.815
6.225,0.3
6.2278,-0.19
6.2306,-0.615
6.2333,-0.98
6.2361,-1.25
6.2389,-1.425
6.2417,-1.48
6.2444,-1.43
6.2472,-1.315
6.25,-1.16
6.2528,-1.025
6.2556,-0.925
6.2583,-0.91
6.2611,-0.935
6.2639,-1.0
6.2667,-1.045
6.2694,-1.075
6.2722,-1.08
6.275,-1.085
6.2778,-1.065
6.2806,-1.06
6.2833,-1.06
6.2861,-1.075
6.2889,-1.075
6.2917,-1.08
6.2944,-1.09
6.2972,-1.08
6.3,-1.105
6.3028,-1.115
6.3056,-1.125
6.3083,-1.125
6.3111,-1.14
6.3139,-1.125
6.3167,-1.115
6.3194,-1.12
6.3222,-1.105
6.325,-1.115
6.3278,-1.12
6.3306,-1.125
6.3333,-1.11
6.3361,-1.09
6.3389,-1.06
6.3417,-1.025
6.3444,-0.995
6.3472,-0.985
6.35,-0.965
6.3528,-0.955
6.3556,-0.94
6.3583,-0.9
6.3611,-0.87
6.3639,-0.845
6.3667,-0.81
6.3694,-0.76
6.3722,-0.735
6.375,-0.69
6.3778,-0.64
6.3806,-0.58
6.3833,-0.54
6.3861,-0.495
6.3889,-0.45
6.3917,-0.43
6.3944,-0.41
6.3972,-0.39
6.4,-0.36
6.4028,-0.31
6.4056,-0.255
6.4083,-0.21
6.4111,-0.17
6.4139,-0.125
6.4167,-0.1
6.4194,-0.065
6.4222,-0.015
6.425,0.03
6.4278,0.085
6.4306,0.115
6.4333,0.135
6.4361,0.145
6.4389,0.15
6.4417,0.155
6.4444,0.16
6.4472,0.185
6.45,0.215
6.4528,0.24
6.4556,0.235
6.4583,0.225
6.4611,0.21
6.4639,0.175
6.4667,0.16
6.4694,0.145
6.4722,0.14
6.475,0.135
6.4778,0.11
6.4806,0.095
6.4833,0.065
6.4861,0.045
6.4889,0.015
6.4917,-0.01
6.4944,-0.015
6.4972,-0.025
6.5,-0.06
6.5028,-0.1
6.5056,-0.12
6.5083,-0.14
6.5111,-0.175
6.5139,-0.17
6.5167,-0.185
6.5194,-0.21
6.5222,-0.245
6.525,-0.26
6.5278,-0.32
6.5306,-0.365
6.5333,-0.4
6.5361,-0.415
6.5389,-0.42
6.5417,-0.425
6.5444,-0.435
6.5472,-0.445
6.55,-0.465
6.5528,-0.495
6.5556,-0.535
6.5583,-0.54
6.5611,-0.56
6.5639,-0.57
6.5667,-0.57
6.5694,-0.57
6.5722,-0.575
6.575,-0.585
6.5778,-0.575
6.5806,-0.58
6.5833,-0.575
6.5861,-0.555
6.5889,-0.545
6.5917,-0.53
6.5944,-0.515
6.5972,-0.495
6.6,-0.465
6.6028,-0.425
6.6056,-0.385
6.6083,-0.35
6.6111,-0.31
6.6139,-0.28
6.6167,-0.26
6.6194,-0.25
6.6222,-0.245
6.625,-0.235
6.6278,-0.245
6.6306,-0.255
6.6333,-0.275
6.6361,-0.3
6.6389,-0.335
6.6417,-0.385
6.6444,-0.445
6.6472,-0.505
6.65,-0.545
6.6528,-0.575
6.6556,-0.6
6.6583,-0.605
6.6611,-0.61
6.6639,-0.62
6.6667,-0.63
6.6694,-0.65
6.6722,-0.655
6.675,-0.655
6.6778,-0.63
6.6806,-0.615
6.6833,-0.615
6.6861,-0.63
6.6889,-0.625
6.6917,-0.645
6.6944,-0.65
6.6972,-0.655
6.7,-0.65
6.7028,-0.655
6.7056,-0.655
6.7083,-0.645
6.7111,-0.65
6.7139,-0.64
6.7167,-0.63
6.7194,-0.64
6.7222,-0.66
6.725,-0.67
6.7278,-0.69
6.7306,-0.705
6.7333,-0.665
6.7361,-0.55
6.7389,-0.38
6.7417,-0.125
6.7444,0.185
6.7472,0.55
6.75,0.95
6.7528,1.355
6.7556,1.675
6.7583,1.83
6.7611,1.785
6.7639,1.51
6.7667,1.115
6.7694,0.625
6.7722,0.13
6.775,-0.31
6.7778,-0.685
6.7806,-0.97
6.7833,-1.19
6.7861,-1.36
6.7889,-1.45
6.7917,-1.475
6.7944,-1.405
6.7972,-1.305
6.8,-1.18
6.8028,-1.07
6.8056,-0.98
6.8083,-0.935
6.8111,-0.91
6.8139,-0.92
6.8167,-0.945
6.8194,-0.97
6.8222,-0.995
6.825,-1.025
6.8278,-1.03
6.8306,-1.04
6.8333,-1.04
6.8361,-1.04
6.8389,-1.045
6.8417,-1.04
6.8444,-1.05
6.8472,-1.055
6.85,-1.055
6.8528,-1.05
6.8556,-1.05
6.8583,-1.035
6.8611,-1.04
6.8639,-1.045
6.8667,-1.06
6.8694,-1.065
6.8722,-1.07
6.875,-1.08
6.8778,-1.075
6.8806,-1.055
6.8833,-1.035
6.8861,-1.01
6.8889,-0.995
6.8917,-0.985
6.8944,-0.985
6.8972,-0.985
6.9,-0.965
6.9028,-0.955
6.9056,-0.925
6.9083,-0.885
6.9111,-0.865
6.9139,-0.825
6.9167,-0.815
6.9194,-0.785
6.9222,-0.765
6.925,-0.74
6.9278,-0.72
6.9306,-0.685
6.9333,-0.635
6.9361,-0.605
6.9389,-0.58
6.9417,-0.545
6.9444,-0.515
6.9472,-0.475
6.95,-0.43
6.9528,-0.385
6.9556,-0.355
6.9583,-0.33
6.9611,-0.3
6.9639,-0.28
6.9667,-0.245
6.9694,-0.2
6.9722,-0.155
6.975,-0.105
6.9778,-0.07
6.9806,-0.04
6.9833,-0.015
6.9861,0.005
6.9889,0.025
6.9917,0.03
6.9944,0.07
6.9972,0.075
7.0,0.085
7.0028,0.095
7.0056,0.105
7.0083,0.1
7.0111,0.09
7.0139,0.105
7.0167,0.11
7.0194,0.11
7.0222,0.1
7.025,0.065
7.0278,0.025
7.0306,-0.02
7.0333,-0.04
7.0361,-0.065
7.0389,-0.09
7.0417,-0.105
7.0444,-0.135
7.0472,-0.16
7.05,-0.17
7.0528,-0.195
7.0556,-0.21
7.0583,-0.225
7.0611,-0.255
7.0639,-0.27
7.0667,-0.32
7.0694,-0.355
7.0722,-0.375
7.075,-0.4
7.0778,-0.41
7.0806,-0.405
7.0833,-0.435
7.0861,-0.45
7.0889,-0.5
7.0917,-0.525
7.0944,-0.56
7.0972,-0.58
7.1,-0.575
7.1028,-0.6
7.1056,-0.595
7.1083,-0.6
7.1111,-0.605
7.1139,-0.605
7.1167,-0.615
7.1194,-0.61
7.1222,-0.61
7.125,-0.595
7.1278,-0.61
7.1306,-0.605
7.1333,-0.605
7.1361,-0.595
7.1389,-0.58
7.1417,-0.535
7.1444,-0.49
7.1472,-0.44
7.15,-0.4
7.1528,-0.375
7.1556,-0.36
7.1583,-0.36
7.1611,-0.35
7.1639,-0.34
7.1667,-0.33
7.1694,-0.31
7.1722,-0.28
7.175,-0.265
7.1778,-0.28
7.1806,-0.305
7.1833,-0.335
7.1861,-0.375
7.1889,-0.43
7.1917,-0.475
7.1944,-0.535
7.1972,-0.585
7.2,-0.64
7.2028,-0.68
7.2056,-0.705
7.2083,-0.715
7.2111,-0.7
7.2139,-0.695
7.2167,-0.68
7.2194,-0.685
7.2222,-0.69
7.225,-0.705
7.2278,-0.72
7.2306,-0.715
7.2333,-0.725
7.2361,-0.715
7.2389,-0.715
7.2417,-0.69
7.2444,-0.69
7.2472,-0.695
7.25,-0.695
7.2528,-0.69
7.2556,-0.7
7.2583,-0.71
7.2611,-0.705
7.2639,-0.71
7.2667,-0.715
7.2694,-0.73
7.2722,-0.745
7.275,-0.77
7.2778,-0.775
7.2806,-0.76
7.2833,-0.685
7.2861,-0.54
7.2889,-0.34
7.2917,-0.065
7.2944,0.25
7.2972,0.63
7.3,1.025
7.3028,1.4
7.3056,1.71
7.3083,1.895
7.3111,1.915
7.3139,1.75
7.3167,1.45
7.3194,1.04
7.3222,0.595
7.325,0.125
7.3278,-0.285
7.3306,-0.64
7.3333,-0.97
7.3361,-1.235
7.3389,-1.43
7.3417,-1.515
7.3444,-1.485
7.3472,-1.4
7.35,-1.265
7.3528,-1.11
7.3556,-1.015
7.3583,-0.96
7.3611,-0.965
7.3639,-1.0
7.3667,-1.05
7.3694,-1.095
7.3722,-1.125
7.375,-1.12
7.3778,-1.13
7.3806,-1.115
7.3833,-1.1
7.3861,-1.11
7.3889,-1.12
7.3917,-1.155
7.3944,-1.165
7.3972,-1.18
7.4,-1.18
7.4028,-1.18
7.4056,-1.175
7.4083,-1.16
7.4111,-1.17
7.4139,-1.175
7.4167,-1.18
7.4194,-1.19
7.4222,-1.19
7.425,-1.195
7.4278,-1.195
7.4306,-1.195
7.4333,-1.195
7.4361,-1.2
7.4389,-1.205
7.4417,-1.2
7.4444,-1.175
7.4472,-1.155
7.45,-1.125
7.4528,-1.115
7.4556,-1.11
7.4583,-1.1
7.4611,-1.105
7.4639,-1.11
7.4667,-1.085
7.4694,-1.05
7.4722,-1.025
7.475,-0.99
7.4778,-0.965
7.4806,-0.93
7.4833,-0.91
7.4861,-0.87
7.4889,-0.85
7.4917,-0.815
7.4944,-0.78
7.4972,-0.745
7.5,-0.715
7.5028,-0.685
7.5056,-0.66
7.5083,-0.635
7.5111,-0.6
7.5139,-0.555
7.5167,-0.52
7.5194,-0.475
7.5222,-0.41
7.525,-0.38
7.5278,-0.345
7.5306,-0.32
7.5333,-0.29
7.5361,-0.265
7.5389,-0.225
7.5417,-0.175
7.5444,-0.135
7.5472,-0.105
7.55,-0.075
7.5528,-0.055
7.5556,-0.05
7.5583,-0.04
7.5611,-0.04
7.5639,-0.02
7.5667,-0.015
7.5694,-0.015
7.5722,-0.01
7.575,-0.005
7.5778,-0.01
7.5806,-0.025
7.5833,-0.035
7.5861,-0.04
7.5889,-0.05
7.5917,-0.065
7.5944,-0.105
7.5972,-0.15
7.6,-0.155
7.6028,-0.205
7.6056,-0.225
7.6083,-0.225
7.6111,-0.215
7.6139,-0.225
7.6167,-0.235
7.6194,-0.265
7.6222,-0.31
7.625,-0.335
7.6278,-0.375
7.6306,-0.4
7.6333,-0.415
7.6361,-0.445
7.6389,-0.46
7.6417,-0.49
7.6444,-0.51
7.6472,-0.54
7.65,-0.555
7.6528,-0.565
7.6556,-0.575
7.6583,-0.59
7.6611,-0.595
7.6639,-0.615
7.6667,-0.64
7.6694,-0.67
7.6722,-0.675
7.675,-0.675
7.6778,-0.66
7.6806,-0.655
7.6833,-0.64
7.6861,-0.645
7.6889,-0.64
7.6917,-0.65
7.6944,-0.66
7.6972,-0.62
7.7,-0.6
7.7028,-0.555
7.7056,-0.515
7.7083,-0.475
7.7111,-0.455
7.7139,-0.435
7.7167,-0.42
7.7194,-0.415
7.7222,-0.405
7.725,-0.375
7.7278,-0.35
7.7306,-0.34
7.7333,-0.345
7.7361,-0.37
7.7389,-0.4
7.7417,-0.44
7.7444,-0.485
7.7472,-0.52
7.75,-0.56
7.7528,-0.595
7.7556,-0.64
7.7583,-0.685
7.7611,-0.74
7.7639,-0.79
7.7667,-0.815
7.7694,-0.82
7.7722,-0.785
7.775,-0.775
7.7778,-0.76
7.7806,-0.755
7.7833,-0.76
7.7861,-0.77
7.7889,-0.785
7.7917,-0.79
7.7944,-0.775
7.7972,-0.775
7.8,-0.78
7.8028,-0.775
7.8056,-0.77
7.8083,-0.775
7.8111,-0.775
7.8139,-0.775
7.8167,-0.765
7.8194,-0.76
7.8222,-0.745
7.825,-0.76
7.8278,-0.775
7.8306,-0.805
7.8333,-0.835
7.8361,-0.835
7.8389,-0.805
7.8417,-0.72
7.8444,-0.575
7.8472,-0.375
7.85,-0.135
7.8528,0.16
7.8556,0.49
7.8583,0.845
7.8611,1.22
7.8639,1.54
7.8667,1.74
7.8694,1.775
7.8722,1.61
7.875,1.305
7.8778,0.9
7.8806,0.45
7.8833,-0.005
7.8861,-0.42
7.8889,-0.805
7.8917,-1.125
7.8944,-1.35
7.8972,-1.485
7.9,-1.51
7.9028,-1.44
7.9056,-1.305
7.9083,-1.15
7.9111,-1.03
7.9139,-0.955
7.9167,-0.935
7.9194,-0.97
7.9222,-1.025
7.925,-1.065
7.9278,-1.1
7.9306,-1.135
7.9333,-1.13
7.9361,-1.135
7.9389,-1.125
7.9417,-1.13
7.9444,-1.125
7.9472,-1.145
7.95,-1.145
7.9528,-1.145
7.9556,-1.15
7.9583,-1.16
7.9611,-1.175
7.9639,-1.19
7.9667,-1.21
7.9694,-1.22
7.9722,-1.22
7.975,-1.195
7.9778,-1.195
7.9806,-1.19
7.9833,-1.18
7.9861,-1.18
7.9889,-1.19
7.9917,-1.195
7.9944,-1.185
7.9972,-1.18
8.0,-1.155
8.0028,-1.14
8.0056,-1.135
8.0083,-1.11
8.0111,-1.085
8.0139,-1.05
8.0167,-1.015
8.0194,-0.965
8.0222,-0.935
8.025,-0.915
8.0278,-0.89
8.0306,-0.865
8.0333,-0.835
8.0361,-0.81
8.0389,-0.76
8.0417,-0.7
8.0444,-0.635
8.0472,-0.595
8.05,-0.54
8.0528,-0.5
8.0556,-0.455
8.0583,-0.4
8.0611,-0.365
8.0639,-0.32
8.0667,-0.27
8.0694,-0.245
8.0722,-0.22
8.075,-0.19
8.0778,-0.14
8.0806,-0.095
8.0833,-0.045
8.0861,-0.005
8.0889,0.025
8.0917,0.045
8.0944,0.06
8.0972,0.065
8.1,0.085
8.1028,0.08
8.1056,0.09
8.1083,0.105
8.1111,0.09
8.1139,0.095
8.1167,0.095
8.1194,0.08
8.1222,0.07
8.125,0.05
8.1278,0.035
8.1306,0.02
8.1333,-0.025
8.1361,-0.055
8.1389,-0.065
8.1417,-0.09
8.1444,-0.09
8.1472,-0.1
8.15,-0.12
8.1528,-0.14
8.1556,-0.165
8.1583,-0.19
8.1611,-0.215
8.1639,-0.22
8.1667,-0.25
8.1694,-0.27
8.1722,-0.29
8.175,-0.325
8.1778,-0.365
8.1806,-0.4
8.1833,-0.42
8.1861,-0.425
8.1889,-0.435
8.1917,-0.46
8.1944,-0.48
8.1972,-0.51
8.2,-0.54
8.2028,-0.565
8.2056,-0.565
8.2083,-0.565
8.2111,-0.55
8.2139,-0.54
8.2167,-0.525
8.2194,-0.525
8.2222,-0.54
8.225,-0.545
8.2278,-0.53
8.2306,-0.52
8.2333,-0.49
8.2361,-0.455
8.2389,-0.415
8.2417,-0.38
8.2444,-0.35
8.2472,-0.315
8.25,-0.31
8.2528,-0.275
8.2556,-0.26
8.2583,-0.235
8.2611,-0.22
8.2639,-0.225
8.2667,-0.22
8.2694,-0.24
8.2722,-0.265
8.275,-0.285
8.2778,-0.315
8.2806,-0.36
8.2833,-0.42
8.2861,-0.48
8.2889,-0.535
8.2917,-0.59
8.2944,-0.62
8.2972,-0.63
8.3,-0.61
8.3028,-0.595
8.3056,-0.595
8.3083,-0.6
8.3111,-0.605
8.3139,-0.63
8.3167,-0.63
8.3194,-0.63
8.3222,-0.615
8.325,-0.615
8.3278,-0.605
8.3306,-0.61
8.3333,-0.625
8.3361,-0.625
8.3389,-0.605
8.3417,-0.615
8.3444,-0.605
8.3472,-0.6
8.35,-0.605
8.3528,-0.62
8.3556,-0.645
8.3583,-0.67
8.3611,-0.665
8.3639,-0.645
8.3667,-0.575
8.3694,-0.43
8.3722,-0.235
8.375,0.015
8.3778,0.315
8.3806,0.655
8.3833,1.04
8.3861,1.4
8.3889,1.7
8.3917,1.83
8.3944,1.755
8.3972,1.465
8.4,1.055
8.4028,0.595
8.4056,0.11
8.4083,-0.295
8.4111,-0.65
8.4139,-0.925
8.4167,-1.135
8.4194,-1.285
8.4222,-1.38
8.425,-1.375
8.4278,-1.295
8.4306,-1.165
8.4333,-1.035
8.4361,-0.935
8.4389,-0.88
8.4417,-0.88
8.4444,-0.905
8.4472,-0.94
8.45,-0.965
8.4528,-0.975
8.4556,-0.99
8.4583,-1.0
8.4611,-1.01
8.4639,-1.015
8.4667,-1.025
8.4694,-1.045
8.4722,-1.025
8.475,-1.02
8.4778,-1.025
8.4806,-1.03
8.4833,-1.045
8.4861,-1.05
8.4889,-1.07
8.4917,-1.075
8.4944,-1.065
8.4972,-1.05
8.5,-1.06
8.5028,-1.055
8.5056,-1.055
8.5083,-1.05
8.5111,-1.055
8.5139,-1.03
8.5167,-1.005
8.5194,-0.97
8.5222,-0.95
8.525,-0.94
8.5278,-0.94
8.5306,-0.935
8.5333,-0.93
8.5361,-0.905
8.5389,-0.875
8.5417,-0.84
8.5444,-0.81
8.5472,-0.795
8.55,-0.77
8.5528,-0.735
8.5556,-0.715
8.5583,-0.68
8.5611,-0.645
8.5639,-0.6
8.5667,-0.555
8.5694,-0.52
8.5722,-0.495
8.575,-0.465
8.5778,-0.435
8.5806,-0.4
8.5833,-0.34
8.5861,-0.295
8.5889,-0.24
8.5917,-0.19
8.5944,-0.165
8.5972,-0.15
8.6,-0.13
8.6028,-0.105
8.6056,-0.065
8.6083,-0.025
8.6111,0.005
8.6139,0.03
8.6167,0.055
8.6194,0.075
8.6222,0.105
8.625,0.12
8.6278,0.14
8.6306,0.15
8.6333,0.16
8.6361,0.145
8.6389,0.12
8.6417,0.1
8.6444,0.09
8.6472,0.08
8.65,0.07
8.6528,0.08
8.6556,0.085
8.6583,0.07
8.6611,0.055
8.6639,0.02
8.6667,-0.005
8.6694,-0.045
8.6722,-0.08
8.675,-0.095
8.6778,-0.11
8.6806,-0.11
8.6833,-0.135
8.6861,-0.16
8.6889,-0.19
8.6917,-0.225
8.6944,-0.245
8.6972,-0.275
8.7,-0.29
8.7028,-0.335
8.7056,-0.345
8.7083,-0.38
8.7111,-0.4
8.7139,-0.44
8.7167,-0.43
8.7194,-0.455
8.7222,-0.49
8.725,-0.51
8.7278,-0.545
8.7306,-0.58
8.7333,-0.61
8.7361,-0.61
8.7389,-0.62
8.7417,-0.62
8.7444,-0.62
8.7472,-0.61
8.75,-0.625
8.7528,-0.625
8.7556,-0.64
8.7583,-0.65
8.7611,-0.665
8.7639,-0.675
8.7667,-0.68
8.7694,-0.67
8.7722,-0.64
8.775,-0.6
8.7778,-0.555
8.7806,-0.505
8.7833,-0.455
8.7861,-0.415
8.7889,-0.405
8.7917,-0.395
8.7944,-0.375
8.7972,-0.375
8.8,-0.365
8.8028,-0.34
8.8056,-0.3
8.8083,-0.28
8.8111,-0.27
8.8139,-0.275
8.8167,-0.3
8.8194,-0.345
8.8222,-0.395
8.825,-0.465
8.8278,-0.52
8.8306,-0.57
8.8333,-0.615
8.8361,-0.645
8.8389,-0.67
8.8417,-0.69
8.8444,-0.715
8.8472,-0.705
8.85,-0.7
8.8528,-0.695
8.8556,-0.7
8.8583,-0.715
8.8611,-0.7
8.8639,-0.715
8.8667,-0.71
8.8694,-0.72
8.8722,-0.725
8.875,-0.715
8.8778,-0.705
8.8806,-0.695
8.8833,-0.68
8.8861,-0.69
8.8889,-0.675
8.8917,-0.695
8.8944,-0.7
8.8972,-0.7
8.9,-0.7
8.9028,-0.725
8.9056,-0.735
8.9083,-0.77
8.9111,-0.785
8.9139,-0.785
8.9167,-0.72
8.9194,-0.595
8.9222,-0.38
8.925,-0.105
8.9278,0.255
8.9306,0.635
8.9333,1.05
8.9361,1.435
8.9389,1.75
8.9417,1.905
8.9444,1.86
8.9472,1.615
8.95,1.26
8.9528,0.82
8.9556,0.355
8.9583,-0.1
8.9611,-0.52
8.9639,-0.905
8.9667,-1.22
8.9694,-1.445
8.9722,-1.525
8.975,-1.515
8.9778,-1.395
8.9806,-1.25
8.9833,-1.115
8.9861,-1.02
8.9889,-0.955
8.9917,-0.96
8.9944,-0.99
8.9972,-1.025
9.0,-1.08
9.0028,-1.105
9.0056,-1.11
9.0083,-1.105
9.0111,-1.08
9.0139,-1.075
9.0167,-1.08
9.0194,-1.095
9.0222,-1.115
9.025,-1.14
9.0278,-1.15
9.0306,-1.155
9.0333,-1.15
9.0361,-1.16
9.0389,-1.16
9.0417,-1.17
9.0444,-1.16
9.0472,-1.15
9.05,-1.12
9.0528,-1.1
9.0556,-1.085
9.0583,-1.09
9.0611,-1.09
9.0639,-1.1
9.0667,-1.1
9.0694,-1.08
9.0722,-1.07
9.075,-1.045
9.0778,-1.02
9.0806,-0.995
9.0833,-0.97
9.0861,-0.955
9.0889,-0.925
9.0917,-0.9
9.0944,-0.87
9.0972,-0.835
9.1,-0.815
9.1028,-0.8
9.1056,-0.78
9.1083,-0.75
9.1111,-0.71
9.1139,-0.66
9.1167,-0.615
9.1194,-0.57
9.1222,-0.525
9.125,-0.5
9.1278,-0.475
9.1306,-0.435
9.1333,-0.4
9.1361,-0.355
9.1389,-0.31
9.1417,-0.27
9.1444,-0.25
9.1472,-0.235
9.15,-0.185
9.1528,-0.155
9.1556,-0.115
9.1583,-0.095
9.1611,-0.075
9.1639,-0.055
9.1667,-0.055
9.1694,-0.035
9.1722,-0.02
9.175,-0.005
9.1778,0.015
9.1806,0.04
9.1833,0.05
9.1861,0.04
9.1889,0.02
9.1917,-0.005
9.1944,-0.035
9.1972,-0.055
9.2,-0.06
9.2028,-0.075
9.2056,-0.085
9.2083,-0.115
9.2111,-0.14
9.2139,-0.15
9.2167,-0.18
9.2194,-0.2
9.2222,-0.21
9.225,-0.23
9.2278,-0.255
9.2306,-0.3
9.2333,-0.335
9.2361,-0.38
9.2389,-0.39
9.2417,-0.415
9.2444,-0.425
9.2472,-0.44
9.25,-0.46
9.2528,-0.48
9.2556,-0.52
9.2583,-0.545
9.2611,-0.58
9.2639,-0.6
9.2667,-0.625
9.2694,-0.635
9.2722,-0.65
9.275,-0.64
9.2778,-0.64
9.2806,-0.655
9.2833,-0.66
9.2861,-0.645
9.2889,-0.645
9.2917,-0.635
9.2944,-0.645
9.2972,-0.65
9.3,-0.66
9.3028,-0.66
9.3056,-0.635
9.3083,-0.6
9.3111,-0.55
9.3139,-0.505
9.3167,-0.465
9.3194,-0.435
9.3222,-0.42
9.325,-0.415
9.3278,-0.395
9.3306,-0.375
9.3333,-0.36
9.3361,-0.345
9.3389,-0.34
9.3417,-0.34
9.3444,-0.35
9.3472,-0.37
9.35,-0.41
9.3528,-0.455
9.3556,-0.5
9.3583,-0.55
9.3611,-0.615
9.3639,-0.67
9.3667,-0.71
9.3694,-0.75
9.3722,-0.77
9.375,-0.755
9.3778,-0.73
9.3806,-0.73
9.3833,-0.735
9.3861,-0.75
9.3889,-0.765
9.3917,-0.77
9.3944,-0.775
9.3972,-0.78
9.4,-0.775
9.4028,-0.79
9.4056,-0.79
9.4083,-0.795
9.4111,-0.795
9.4139,-0.765
9.4167,-0.76
9.4194,-0.745
9.4222,-0.73
9.425,-0.74
9.4278,-0.765
9.4306,-0.805
9.4333,-0.835
9.4361,-0.86
9.4389,-0.825
9.4417,-0.745
9.4444,-0.615
9.4472,-0.4
9.45,-0.15
9.4528,0.195
9.4556,0.56
9.4583,0.96
9.4611,1.345
9.4639,1.66
9.4667,1.83
9.4694,1.81
9.4722,1.61
9.475,1.29
9.4778,0.92
9.4806,0.515
9.4833,0.105
9.4861,-0.295
9.4889,-0.67
9.4917,-1.015
9.4944,-1.29
9.4972,-1.485
9.5,-1.535
9.5028,-1.475
9.5056,-1.35
9.5083,-1.185
9.5111,-1.075
9.5139,-0.995
9.5167,-0.975
9.5194,-1.02
9.5222,-1.08
9.525,-1.12
9.5278,-1.145
9.5306,-1.155
9.5333,-1.145
9.5361,-1.15
9.5389,-1.14
9.5417,-1.15
9.5444,-1.16
9.5472,-1.17
9.55,-1.175
9.5528,-1.175
9.5556,-1.17
9.5583,-1.18
9.5611,-1.195
9.5639,-1.215
9.5667,-1.235
9.5694,-1.25
9.5722,-1.26
9.575,-1.24
9.5778,-1.23
9.5806,-1.215
9.5833,-1.215
9.5861,-1.205
9.5889,-1.215
9.5917,-1.21
9.5944,-1.22
9.5972,-1.205
9.6,-1.185
9.6028,-1.18
9.6056,-1.175
9.6083,-1.16
9.6111,-1.145
9.6139,-1.135
9.6167,-1.095
9.6194,-1.065
9.6222,-1.03
9.625,-1.01
9.6278,-0.995
9.6306,-0.98
9.6333,-0.95
9.6361,-0.925
9.6389,-0.89
9.6417,-0.845
9.6444,-0.78
9.6472,-0.73
9.65,-0.695
9.6528,-0.665
9.6556,-0.635
9.6583,-0.605
9.6611,-0.545
9.6639,-0.505
9.6667,-0.46
9.6694,-0.41
9.6722,-0.37
9.675,-0.325
9.6778,-0.285
9.6806,-0.25
9.6833,-0.185
9.6861,-0.145
9.6889,-0.11
9.6917,-0.075
9.6944,-0.07
9.6972,-0.065
9.7,-0.06
9.7028,-0.045
9.7056,-0.015
9.7083,0.005
9.7111,0.03
9.7139,0.035
9.7167,0.045
9.7194,0.035
9.7222,0.025
9.725,0.01
9.7278,-0.01
9.7306,-0.015
9.7333,-0.04
9.7361,-0.07
9.7389,-0.085
9.7417,-0.12
9.7444,-0.135
9.7472,-0.15
9.75,-0.17
9.7528,-0.17
9.7556,-0.175
9.7583,-0.2
9.7611,-0.24
9.7639,-0.27
9.7667,-0.31
9.7694,-0.34
9.7722,-0.355
9.775,-0.365
9.7778,-0.395
9.7806,-0.415
9.7833,-0.44
9.7861,-0.475
9.7889,-0.49
9.7917,-0.515
9.7944,-0.525
9.7972,-0.54
9.8,-0.56
9.8028,-0.57
9.8056,-0.595
9.8083,-0.615
9.8111,-0.63
9.8139,-0.645
9.8167,-0.64
9.8194,-0.635
9.8222,-0.625
9.825,-0.635
9.8278,-0.655
9.8306,-0.66
9.8333,-0.685
9.8361,-0.67
9.8389,-0.665
9.8417,-0.615
9.8444,-0.56
9.8472,-0.53
9.85,-0.485
9.8528,-0.465
9.8556,-0.455
9.8583,-0.445
9.8611,-0.44
9.8639,-0.42
9.8667,-0.395
9.8694,-0.37
9.8722,-0.36
9.875,-0.35
9.8778,-0.35
9.8806,-0.37
9.8833,-0.39
9.8861,-0.42
9.8889,-0.455
9.8917,-0.505
9.8944,-0.56
9.8972,-0.625
9.9,-0.695
9.9028,-0.75
9.9056,-0.78
9.9083,-0.795
9.9111,-0.795
9.9139,-0.77
9.9167,-0.745
9.9194,-0.75
9.9222,-0.765
9.925,-0.77
9.9278,-0.785
9.9306,-0.79
9.9333,-0.79
9.9361,-0.78
9.9389,-0.775
9.9417,-0.78
9.9444,-0.78
9.9472,-0.775
9.95,-0.765
9.9528,-0.76
9.9556,-0.755
9.9583,-0.745
9.9611,-0.745
9.9639,-0.765
9.9667,-0.79
9.9694,-0.82
9.9722,-0.855
9.975,-0.87
9.9778,-0.84
9.9806,-0.78
9.9833,-0.66
9.9861,-0.495
9.9889,-0.28
9.9917,-0.02
9.9944,0.325
9.9972,0.695
10.0,1.13
10.0028,1.51
10.0056,1.765
10.0083,1.845
10.0111,1.71
10.0139,1.42
10.0167,1.02
10.0194,0.565
10.0222,0.1
10.025,-0.31
10.0278,-0.645
10.0306,-0.925
10.0333,-1.15
10.0361,-1.325
10.0389,-1.415
10.0417,-1.42
10.0444,-1.35
10.0472,-1.22
10.05,-1.075
10.0528,-0.98
10.0556,-0.94
10.0583,-0.965
10.0611,-1.015
10.0639,-1.07
10.0667,-1.095
10.0694,-1.1
10.0722,-1.1
10.075,-1.09
10.0778,-1.09
10.0806,-1.09
10.0833,-1.105
10.0861,-1.115
10.0889,-1.12
10.0917,-1.115
10.0944,-1.12
10.0972,-1.12
10.1,-1.13
10.1028,-1.145
10.1056,-1.155
10.1083,-1.16
10.1111,-1.155
10.1139,-1.14
10.1167,-1.13
10.1194,-1.13
10.1222,-1.125
10.125,-1.13
10.1278,-1.145
10.1306,-1.155
10.1333,-1.155
10.1361,-1.13
10.1389,-1.105
10.1417,-1.075
10.1444,-1.045
10.1472,-1.02
10.15,-1.005
10.1528,-0.99
10.1556,-0.965
10.1583,-0.945
10.1611,-0.915
10.1639,-0.88
10.1667,-0.85
10.1694,-0.83
10.1722,-0.805
10.175,-0.77
10.1778,-0.74
10.1806,-0.695
10.1833,-0.635
10.1861,-0.585
10.1889,-0.535
10.1917,-0.49
10.1944,-0.465
10.1972,-0.455
10.2,-0.425
10.2028,-0.4
10.2056,-0.355
10.2083,-0.31
10.2111,-0.26
10.2139,-0.215
10.2167,-0.17
10.2194,-0.14
10.2222,-0.105
10.225,-0.05
10.2278,-0.005
10.2306,0.035
10.2333,0.065
10.2361,0.075
10.2389,0.085
10.2417,0.105
10.2444,0.125
10.2472,0.14
10.25,0.16
10.2528,0.175
10.2556,0.185
10.2583,0.19
10.2611,0.185
10.2639,0.175
10.2667,0.155
10.2694,0.13
10.2722,0.115
10.275,0.11
10.2778,0.105
10.2806,0.105
10.2833,0.09
10.2861,0.07
10.2889,0.035
10.2917,0.015
10.2944,-0.015
10.2972,-0.035
10.3,-0.055
10.3028,-0.07
10.3056,-0.1
10.3083,-0.125
10.3111,-0.14
10.3139,-0.155
10.3167,-0.18
10.3194,-0.2
10.3222,-0.23
10.325,-0.245
10.3278,-0.26
10.3306,-0.295
10.3333,-0.33
10.3361,-0.37
10.3389,-0.405
10.3417,-0.425
10.3444,-0.445
10.3472,-0.465
10.35,-0.485
10.3528,-0.495
10.3556,-0.52
10.3583,-0.56
10.3611,-0.575
10.3639,-0.585
10.3667,-0.59
10.3694,-0.595
10.3722,-0.61
10.375,-0.615
10.3778,-0.635
10.3806,-0.64
10.3833,-0.66
10.3861,-0.675
10.3889,-0.67
10.3917,-0.66
10.3944,-0.635
10.3972,-0.605
10.4,-0.595
10.4028,-0.565
10.4056,-0.54
10.4083,-0.515
10.4111,-0.475
10.4139,-0.445
10.4167,-0.395
10.4194,-0.36
10.4222,-0.335
10.425,-0.32
10.4278,-0.315
10.4306,-0.31
10.4333,-0.3
10.4361,-0.295
10.4389,-0.3
10.4417,-0.3
10.4444,-0.32
10.4472,-0.37
10.45,-0.425
10.4528,-0.505
10.4556,-0.57
10.4583,-0.63
10.4611,-0.665
10.4639,-0.685
10.4667,-0.705
10.4694,-0.7
10.4722,-0.715
10.475,-0.725
10.4778,-0.72
10.4806,-0.725
10.4833,-0.695
10.4861,-0.705
10.4889,-0.69
10.4917,-0.695
10.4944,-0.715
10.4972,-0.715
10.5,-0.715
10.5028,-0.73
10.5056,-0.735
10.5083,-0.71
10.5111,-0.7
10.5139,-0.685
10.5167,-0.675
10.5194,-0.685
10.5222,-0.705
10.525,-0.71
10.5278,-0.725
10.5306,-0.735
10.5333,-0.75
10.5361,-0.775
10.5389,-0.78
10.5417,-0.785
10.5444,-0.72
10.5472,-0.64
10.55,-0.465
10.5528,-0.23
10.5556,0.055
10.5583,0.415
10.5611,0.795
10.5639,1.185
10.5667,1.52
10.5694,1.755
10.5722,1.79
10.575,1.625
10.5778,1.315
10.5806,0.92
10.5833,0.49
10.5861,0.05
10.5889,-0.34
10.5917,-0.65
10.5944,-0.895
10.5972,-1.115
10.6,-1.295
10.6028,-1.435
10.6056,-1.49
10.6083,-1.45
10.6111,-1.36
10.6139,-1.235
10.6167,-1.115
10.6194,-1.045
10.6222,-0.99
10.625,-0.965
10.6278,-0.985
10.6306,-1.005
10.6333,-1.055
10.6361,-1.08
10.6389,-1.095
10.6417,-1.105
10.6444,-1.09
10.6472,-1.085
10.65,-1.07
10.6528,-1.07
10.6556,-1.08
10.6583,-1.095
10.6611,-1.105
10.6639,-1.13
10.6667,-1.14
10.6694,-1.15
10.6722,-1.155
10.675,-1.14
10.6778,-1.13
10.6806,-1.135
10.6833,-1.125
10.6861,-1.125
10.6889,-1.125
10.6917,-1.12
10.6944,-1.11
10.6972,-1.125
10.7,-1.11
10.7028,-1.1
10.7056,-1.1
10.7083,-1.09
10.7111,-1.075
10.7139,-1.06
10.7167,-1.03
10.7194,-1.0
10.7222,-0.965
10.725,-0.96
10.7278,-0.945
10.7306,-0.925
10.7333,-0.91
10.7361,-0.875
10.7389,-0.845
10.7417,-0.8
10.7444,-0.77
10.7472,-0.74
10.75,-0.72
10.7528,-0.68
10.7556,-0.665
10.7583,-0.625
10.7611,-0.56
10.7639,-0.525
10.7667,-0.495
10.7694,-0.47
10.7722,-0.435
10.775,-0.425
10.7778,-0.38
10.7806,-0.345
10.7833,-0.3
10.7861,-0.24
10.7889,-0.2
10.7917,-0.165
10.7944,-0.14
10.7972,-0.13
10.8,-0.11
10.8028,-0.08
10.8056,-0.04
10.8083,-0.025
10.8111,0.01
10.8139,0.035
10.8167,0.035
10.8194,0.04
10.8222,0.045
10.825,0.055
10.8278,0.05
10.8306,0.05
10.8333,0.06
10.8361,0.055
10.8389,0.04
10.8417,0.035
10.8444,0.025
10.8472,0.02
10.85,0.0
10.8528,0.0
10.8556,-0.015
10.8583,-0.04
10.8611,-0.045
10.8639,-0.085
10.8667,-0.11
10.8694,-0.15
10.8722,-0.18
10.875,-0.19
10.8778,-0.2
10.8806,-0.205
10.8833,-0.215
10.8861,-0.235
10.8889,-0.255
10.8917,-0.295
10.8944,-0.34
10.8972,-0.375
10.9,-0.405
10.9028,-0.425
10.9056,-0.43
10.9083,-0.445
10.9111,-0.47
10.9139,-0.49
10.9167,-0.52
10.9194,-0.545
10.9222,-0.555
10.925,-0.565
10.9278,-0.57
10.9306,-0.57
10.9333,-0.59
10.9361,-0.61
10.9389,-0.64
10.9417,-0.645
10.9444,-0.65
10.9472,-0.64
10.95,-0.62
10.9528,-0.605
10.9556,-0.59
10.9583,-0.59
10.9611,-0.595
10.9639,-0.575
10.9667,-0.56
10.9694,-0.53
10.9722,-0.495
10.975,-0.455
10.9778,-0.415
10.9806,-0.385
10.9833,-0.36
10.9861,-0.36
10.9889,-0.34
10.9917,-0.325
10.9944,-0.31
10.9972,-0.295
11.0,-0.3
11.0028,-0.32
11.0056,-0.36
11.0083,-0.4
11.0111,-0.45
11.0139,-0.5
11.0167,-0.54
11.0194,-0.59
11.0222,-0.625
11.025,-0.67
11.0278,-0.715
11.0306,-0.75
11.0333,-0.76
11.0361,-0.785
11.0389,-0.775
11.0417,-0.755
11.0444,-0.745
11.0472,-0.745
11.05,-0.735
11.0528,-0.74
11.0556,-0.735
11.0583,-0.745
11.0611,-0.755
11.0639,-0.755
11.0667,-0.75
11.0694,-0.76
11.0722,-0.76
11.075,-0.75
11.0778,-0.745
11.0806,-0.75
11.0833,-0.735
11.0861,-0.735
11.0889,-0.725
11.0917,-0.735
11.0944,-0.77
11.0972,-0.8
11.1,-0.825
11.1028,-0.81
11.1056,-0.73
11.1083,-0.57
11.1111,-0.35
11.1139,-0.07
11.1167,0.24
11.1194,0.59
11.1222,0.965
11.125,1.345
11.1278,1.655
11.1306,1.855
11.1333,1.875
11.1361,1.685
11.1389,1.35
11.1417,0.91
11.1444,0.42
11.1472,-0.055
11.15,-0.485
11.1528,-0.855
11.1556,-1.145
11.1583,-1.35
11.1611,-1.445
11.1639,-1.435
11.1667,-1.345
11.1694,-1.22
11.1722,-1.1
11.175,-1.0
11.1778,-0.945
11.1806,-0.95
11.1833,-0.975
11.1861,-1.025
11.1889,-1.05
11.1917,-1.08
11.1944,-1.09
11.1972,-1.085
11.2,-1.08
11.2028,-1.085
11.2056,-1.095
11.2083,-1.11
11.2111,-1.12
11.2139,-1.115
11.2167,-1.115
11.2194,-1.11
11.2222,-1.11
11.225,-1.125
11.2278,-1.15
11.2306,-1.16
11.2333,-1.17
11.2361,-1.18
11.2389,-1.175
11.2417,-1.175
11.2444,-1.17
11.2472,-1.16
11.25,-1.155
11.2528,-1.145
11.2556,-1.145
11.2583,-1.135
11.2611,-1.12
11.2639,-1.105
11.2667,-1.1
11.2694,-1.105
11.2722,-1.095
11.275,-1.08
11.2778,-1.05
11.2806,-1.04
11.2833,-1.0
11.2861,-0.96
11.2889,-0.915
11.2917,-0.88
11.2944,-0.87
11.2972,-0.84
11.3,-0.81
11.3028,-0.795
11.3056,-0.735
11.3083,-0.67
11.3111,-0.645
11.3139,-0.595
11.3167,-0.565
11.3194,-0.525
11.3222,-0.5
11.325,-0.47
11.3278,-0.44
11.3306,-0.365
11.3333,-0.32
11.3361,-0.27
11.3389,-0.225
11.3417,-0.185
11.3444,-0.155
11.3472,-0.115
11.35,-0.055
11.3528,-0.025
11.3556,0.02
11.3583,0.04
11.3611,0.04
11.3639,0.04
11.3667,0.04
11.3694,0.075
11.3722,0.08
11.375,0.105
11.3778,0.12
11.3806,0.13
11.3833,0.13
11.3861,0.12
11.3889,0.115
11.3917,0.1
11.3944,0.07
11.3972,0.06
11.4,0.05
11.4028,0.01
11.4056,-0.01
11.4083,-0.02
11.4111,-0.04
11.4139,-0.06
11.4167,-0.05
11.4194,-0.06
11.4222,-0.07
11.425,-0.11
11.4278,-0.14
11.4306,-0.17
11.4333,-0.21
11.4361,-0.255
11.4389,-0.265
11.4417,-0.29
11.4444,-0.305
11.4472,-0.32
11.45,-0.34
11.4528,-0.365
11.4556,-0.39
11.4583,-0.425
11.4611,-0.44
11.4639,-0.455
11.4667,-0.465
11.4694,-0.475
11.4722,-0.49
11.475,-0.5
11.4778,-0.52
11.4806,-0.535
11.4833,-0.515
11.4861,-0.53
11.4889,-0.515
11.4917,-0.55
11.4944,-0.565
11.4972,-0.57
11.5,-0.58
11.5028,-0.59
11.5056,-0.55
11.5083,-0.505
11.5111,-0.46
11.5139,-0.4
11.5167,-0.36
11.5194,-0.33
11.5222,-0.325
11.525,-0.32
11.5278,-0.31
11.5306,-0.31
11.5333,-0.295
11.5361,-0.295
11.5389,-0.285
11.5417,-0.29
11.5444,-0.31
11.5472,-0.335
11.55,-0.37
11.5528,-0.42
11.5556,-0.475
11.5583,-0.535
11.5611,-0.595
11.5639,-0.65
11.5667,-0.7
11.5694,-0.725
11.5722,-0.725
11.575,-0.715
11.5778,-0.695
11.5806,-0.7
11.5833,-0.695
11.5861,-0.685
11.5889,-0.68
11.5917,-0.69
11.5944,-0.68
11.5972,-0.685
11.6,-0.68
11.6028,-0.675
11.6056,-0.69
11.6083,-0.69
11.6111,-0.69
11.6139,-0.7
11.6167,-0.68
11.6194,-0.655
11.6222,-0.65
11.625,-0.65
11.6278,-0.67
11.6306,-0.69
11.6333,-0.72
11.6361,-0.73
11.6389,-0.705
11.6417,-0.625
11.6444,-0.485
11.6472,-0.285
11.65,-0.03
11.6528,0.245
11.6556,0.545
11.6583,0.885
11.6611,1.26
11.6639,1.565
11.6667,1.775
11.6694,1.78
11.6722,1.545
11.675,1.16
11.6778,0.7
11.6806,0.205
11.6833,-0.225
11.6861,-0.6
11.6889,-0.895
11.6917,-1.12
11.6944,-1.27
11.6972,-1.36
11.7,-1.38
11.7028,-1.325
11.7056,-1.225
11.7083,-1.09
11.7111,-0.985
11.7139,-0.905
11.7167,-0.855
11.7194,-0.88
11.7222,-0.91
11.725,-0.96
11.7278,-0.99
11.7306,-1.0
11.7333,-1.015
11.7361,-1.025
11.7389,-1.035
11.7417,-1.035
11.7444,-1.055
11.7472,-1.055
11.75,-1.045
11.7528,-1.045
11.7556,-1.035
11.7583,-1.045
11.7611,-1.055
11.7639,-1.07
11.7667,-1.095
11.7694,-1.11
11.7722,-1.11
11.775,-1.1
11.7778,-1.085
11.7806,-1.065
11.7833,-1.065
11.7861,-1.07
11.7889,-1.07
11.7917,-1.07
11.7944,-1.065
11.7972,-1.055
11.8,-1.04
11.8028,-1.03
11.8056,-1.01
11.8083,-0.985
11.8111,-0.98
11.8139,-0.97
11.8167,-0.96
11.8194,-0.945
11.8222,-0.9
11.825,-0.87
11.8278,-0.835
11.8306,-0.8
11.8333,-0.78
11.8361,-0.74
11.8389,-0.72
11.8417,-0.675
11.8444,-0.64
11.8472,-0.59
11.85,-0.55
11.8528,-0.515
11.8556,-0.485
11.8583,-0.465
11.8611,-0.45
11.8639,-0.42
11.8667,-0.39
11.8694,-0.34
11.8722,-0.295
11.875,-0.25
11.8778,-0.2
11.8806,-0.16
11.8833,-0.11
11.8861,-0.08
11.8889,-0.06
11.8917,-0.03
11.8944,-0.005
11.8972,0.015
11.9,0.04
11.9028,0.055
11.9056,0.065
11.9083,0.08
11.9111,0.095
11.9139,0.115
11.9167,0.11
11.9194,0.125
11.9222,0.13
11.925,0.135
11.9278,0.12
11.9306,0.105
11.9333,0.095
11.9361,0.08
11.9389,0.07
11.9417,0.065
11.9444,0.065
11.9472,0.065
11.95,0.045
11.9528,0.025
11.9556,0.0
11.9583,-0.035
11.9611,-0.065
11.9639,-0.1
11.9667,-0.12
11.9694,-0.14
11.9722,-0.175
11.975,-0.185
11.9778,-0.21
11.9806,-0.245
11.9833,-0.27
11.9861,-0.3
11.9889,-0.3
11.9917,-0.33
11.9944,-0.37
11.9972,-0.395
12.0,-0.445
12.0028,-0.485
12.0056,-0.52
12.0083,-0.52
12.0111,-0.54
12.0139,-0.55
12.0167,-0.56
12.0194,-0.575
12.0222,-0.59
12.025,-0.625
12.0278,-0.655
12.0306,-0.66
12.0333,-0.655
12.0361,-0.665
12.0389,-0.665
12.0417,-0.67
12.0444,-0.685
12.0472,-0.7
12.05,-0.68
12.0528,-0.67
12.0556,-0.65
12.0583,-0.64
12.0611,-0.62
12.0639,-0.59
12.0667,-0.56
12.0694,-0.525
12.0722,-0.495
12.075,-0.435
12.0778,-0.405
12.0806,-0.365
12.0833,-0.345
12.0861,-0.34
12.0889,-0.335
12.0917,-0.335
12.0944,-0.34
12.0972,-0.34
12.1,-0.355
12.1028,-0.37
12.1056,-0.425
12.1083,-0.475
12.1111,-0.555
12.1139,-0.63
12.1167,-0.685
12.1194,-0.695
12.1222,-0.705
12.125,-0.705
12.1278,-0.69
12.1306,-0.695
12.1333,-0.69
12.1361,-0.705
12.1389,-0.72
12.1417,-0.72
12.1444,-0.725
12.1472,-0.74
12.15,-0.74
12.1528,-0.745
12.1556,-0.74
12.1583,-0.74
12.1611,-0.74
12.1639,-0.735
12.1667,-0.725
12.1694,-0.715
12.1722,-0.715
12.175,-0.72
12.1778,-0.715
12.1806,-0.71
12.1833,-0.71
12.1861,-0.71
12.1889,-0.73
12.1917,-0.735
12.1944,-0.765
12.1972,-0.755
12.2,-0.7
12.2028,-0.575
12.2056,-0.365
12.2083,-0.055
12.2111,0.305
12.2139,0.73
12.2167,1.13
12.2194,1.525
12.2222,1.8
12.225,1.895
12.2278,1.775
12.2306,1.475
12.2333,1.045
12.2361,0.545
12.2389,0.025
12.2417,-0.46
12.2444,-0.865
12.2472,-1.205
12.25,-1.425
12.2528,-1.535
12.2556,-1.52
12.2583,-1.435
12.2611,-1.31
12.2639,-1.18
12.2667,-1.1
12.2694,-1.04
12.2722,-1.02
12.275,-1.02
12.2778,-1.035
12.2806,-1.05
12.2833,-1.07
12.2861,-1.1
12.2889,-1.11
12.2917,-1.115
12.2944,-1.12
12.2972,-1.11
12.3,-1.115
12.3028,-1.12
12.3056,-1.12
12.3083,-1.14
12.3111,-1.135
12.3139,-1.15
12.3167,-1.14
12.3194,-1.135
12.3222,-1.135
12.325,-1.135
12.3278,-1.135
12.3306,-1.145
12.3333,-1.14
12.3361,-1.145
12.3389,-1.14
12.3417,-1.115
12.3444,-1.095
12.3472,-1.08
12.35,-1.075
12.3528,-1.06
12.3556,-1.045
12.3583,-1.045
12.3611,-1.025
12.3639,-1.005
12.3667,-0.975
12.3694,-0.955
12.3722,-0.935
12.375,-0.91
12.3778,-0.9
12.3806,-0.86
12.3833,-0.82
12.3861,-0.755
12.3889,-0.72
12.3917,-0.695
12.3944,-0.67
12.3972,-0.645
12.4,-0.615
12.4028,-0.59
12.4056,-0.545
12.4083,-0.495
12.4111,-0.455
12.4139,-0.43
12.4167,-0.39
12.4194,-0.355
12.4222,-0.315
12.425,-0.27
12.4278,-0.235
12.4306,-0.195
12.4333,-0.17
12.4361,-0.16
12.4389,-0.14
12.4417,-0.105
12.4444,-0.06
12.4472,-0.025
12.45,0.01
12.4528,0.04
12.4556,0.045
12.4583,0.04
12.4611,0.035
12.4639,0.02
12.4667,0.015
12.4694,0.015
12.4722,0.02
12.475,0.025
12.4778,0.02
12.4806,-0.005
12.4833,-0.005
12.4861,-0.025
12.4889,-0.03
12.4917,-0.04
12.4944,-0.065
12.4972,-0.095
12.5,-0.14
12.5028,-0.18
12.5056,-0.21
12.5083,-0.22
12.5111,-0.265
12.5139,-0.27
12.5167,-0.28
12.5194,-0.295
12.5222,-0.335
12.525,-0.38
12.5278,-0.415
12.5306,-0.445
12.5333,-0.47
12.5361,-0.49
12.5389,-0.505
12.5417,-0.535
12.5444,-0.56
12.5472,-0.57
12.55,-0.575
12.5528,-0.575
12.5556,-0.585
12.5583,-0.59
12.5611,-0.585
12.5639,-0.6
12.5667,-0.62
12.5694,-0.645
12.5722,-0.65
12.575,-0.645
12.5778,-0.655
12.5806,-0.65
12.5833,-0.62
12.5861,-0.605
12.5889,-0.605
12.5917,-0.59
12.5944,-0.585
12.5972,-0.555
12.6,-0.52
12.6028,-0.485
12.6056,-0.43
12.6083,-0.41
12.6111,-0.385
12.6139,-0.365
12.6167,-0.355
12.6194,-0.335
12.6222,-0.305
12.625,-0.305
12.6278,-0.31
12.6306,-0.34
12.6333,-0.385
12.6361,-0.45
12.6389,-0.51
12.6417,-0.57
12.6444,-0.625
12.6472,-0.65
12.65,-0.665
12.6528,-0.71
12.6556,-0.73
12.6583,-0.75
12.6611,-0.77
12.6639,-0.775
12.6667,-0.77
12.6694,-0.78
12.6722,-0.775
12.675,-0.78
12.6778,-0.785
12.6806,-0.79
12.6833,-0.79
12.6861,-0.77
12.6889,-0.765
12.6917,-0.74
12.6944,-0.75
12.6972,-0.76
12.7,-0.78
12.7028,-0.795
12.7056,-0.805
12.7083,-0.815
12.7111,-0.8
12.7139,-0.795
12.7167,-0.785
12.7194,-0.795
12.7222,-0.805
12.725,-0.815
12.7278,-0.8
12.7306,-0.72
12.7333,-0.555
12.7361,-0.335
12.7389,-0.055
12.7417,0.265
12.7444,0.615
12.7472,0.985
12.75,1.36
12.7528,1.675
12.7556,1.825
12.7583,1.8
12.7611,1.57
12.7639,1.19
12.7667,0.72
12.7694,0.22
12.7722,-0.285
12.775,-0.7
12.7778,-1.05
12.7806,-1.315
12.7833,-1.475
12.7861,-1.53
12.7889,-1.5
12.7917,-1.385
12.7944,-1.24
12.7972,-1.105
12.8,-1.02
12.8028,-0.98
12.8056,-1.0
12.8083,-1.025
12.8111,-1.07
12.8139,-1.095
12.8167,-1.12
12.8194,-1.115
12.8222,-1.105
12.825,-1.1
12.8278,-1.105
12.8306,-1.095
12.8333,-1.115
12.8361,-1.135
12.8389,-1.17
12.8417,-1.19
12.8444,-1.195
12.8472,-1.185
12.85,-1.175
12.8528,-1.165
12.8556,-1.17
12.8583,-1.17
12.8611,-1.195
12.8639,-1.215
12.8667,-1.21
12.8694,-1.22
12.8722,-1.22
12.875,-1.21
12.8778,-1.195
12.8806,-1.2
12.8833,-1.195
12.8861,-1.185
12.8889,-1.175
12.8917,-1.16
12.8944,-1.145
12.8972,-1.13
12.9,-1.125
12.9028,-1.115
12.9056,-1.11
12.9083,-1.1
12.9111,-1.09
12.9139,-1.045
12.9167,-1.01
12.9194,-0.97
12.9222,-0.94
12.925,-0.91
12.9278,-0.89
12.9306,-0.865
12.9333,-0.84
12.9361,-0.8
12.9389,-0.76
12.9417,-0.72
12.9444,-0.68
12.9472,-0.64
12.95,-0.625
12.9528,-0.57
12.9556,-0.54
12.9583,-0.5
12.9611,-0.435
12.9639,-0.395
12.9667,-0.35
12.9694,-0.315
12.9722,-0.28
12.975,-0.23
12.9778,-0.195
12.9806,-0.15
12.9833,-0.11
12.9861,-0.06
12.9889,-0.02
12.9917,0.005
12.9944,0.015
12.9972,0.03
13.0,0.035
13.0028,0.05
13.0056,0.06
13.0083,0.075
13.0111,0.08
13.0139,0.075
13.0167,0.075
13.0194,0.065
13.0222,0.05
13.025,0.04
13.0278,0.035
13.0306,0.025
13.0333,0.01
13.0361,0.0
13.0389,-0.03
13.0417,-0.06
13.0444,-0.08
13.0472,-0.1
13.05,-0.12
13.0528,-0.125
13.0556,-0.14
13.0583,-0.17
13.0611,-0.2
13.0639,-0.245
13.0667,-0.28
13.0694,-0.315
13.0722,-0.335
13.075,-0.35
13.0778,-0.37
13.0806,-0.4
13.0833,-0.43
13.0861,-0.45
13.0889,-0.465
13.0917,-0.48
13.0944,-0.485
13.0972,-0.505
13.1,-0.52
13.1028,-0.54
13.1056,-0.55
13.1083,-0.575
13.1111,-0.58
13.1139,-0.58
13.1167,-0.56
13.1194,-0.555
13.1222,-0.55
13.125,-0.56
13.1278,-0.555
13.1306,-0.56
13.1333,-0.545
13.1361,-0.52
13.1389,-0.49
13.1417,-0.44
13.1444,-0.405
13.1472,-0.395
13.15,-0.36
13.1528,-0.35
13.1556,-0.33
13.1583,-0.3
13.1611,-0.285
13.1639,-0.29
13.1667,-0.315
13.1694,-0.35
13.1722,-0.4
13.175,-0.455
13.1778,-0.505
13.1806,-0.555
13.1833,-0.595
13.1861,-0.635
13.1889,-0.665
13.1917,-0.7
13.1944,-0.74
13.1972,-0.74
13.2,-0.74
13.2028,-0.73
13.2056,-0.725
13.2083,-0.72
13.2111,-0.715
13.2139,-0.74
13.2167,-0.735
13.2194,-0.75
13.2222,-0.745
13.225,-0.74
13.2278,-0.725
13.2306,-0.725
13.2333,-0.735
13.2361,-0.745
13.2389,-0.755
13.2417,-0.75
13.2444,-0.74
13.2472,-0.73
13.25,-0.74
13.2528,-0.74
13.2556,-0.745
13.2583,-0.765
13.2611,-0.785
13.2639,-0.77
13.2667,-0.695
13.2694,-0.525
13.2722,-0.295
13.275,0.045
13.2778,0.44
13.2806,0.905
13.2833,1.365
13.2861,1.73
13.2889,1.925
13.2917,1.925
13.2944,1.705
13.2972,1.34
13.3,0.895
13.3028,0.4
13.3056,-0.03
13.3083,-0.41
13.3111,-0.735
13.3139,-1.015
13.3167,-1.205
13.3194,-1.29
13.3222,-1.285
13.325,-1.195
13.3278,-1.07
13.3306,-0.955
13.3333,-0.89
13.3361,-0.88
13.3389,-0.915
13.3417,-0.95
13.3444,-1.01
13.3472,-1.04
13.35,-1.045
13.3528,-1.04
13.3556,-1.02
13.3583,-1.02
13.3611,-1.03
13.3639,-1.05
13.3667,-1.075
13.3694,-1.09
13.3722,-1.105
13.375,-1.105
13.3778,-1.105
13.3806,-1.105
13.3833,-1.105
13.3861,-1.105
13.3889,-1.125
13.3917,-1.135
13.3944,-1.135
13.3972,-1.14
13.4,-1.145
13.4028,-1.16
13.4056,-1.165
13.4083,-1.155
13.4111,-1.15
13.4139,-1.155
13.4167,-1.135
13.4194,-1.115
13.4222,-1.1
13.425,-1.085
13.4278,-1.065
13.4306,-1.055
13.4333,-1.035
13.4361,-1.015
13.4389,-0.985
13.4417,-0.96
13.4444,-0.95
13.4472,-0.905
13.45,-0.87
13.4528,-0.84
13.4556,-0.785
13.4583,-0.725
13.4611,-0.685
13.4639,-0.63
13.4667,-0.595
13.4694,-0.565
13.4722,-0.53
13.475,-0.49
13.4778,-0.435
13.4806,-0.38
13.4833,-0.325
13.4861,-0.27
13.4889,-0.24
13.4917,-0.195
13.4944,-0.15
13.4972,-0.125
13.5,-0.085
13.5028,-0.04
13.5056,0.0
13.5083,0.03
13.5111,0.055
13.5139,0.085
13.5167,0.1
13.5194,0.115
13.5222,0.14
13.525,0.15
13.5278,0.165
13.5306,0.165
13.5333,0.175
13.5361,0.165
13.5389,0.155
13.5417,0.14
13.5444,0.13
13.5472,0.135
13.55,0.14
13.5528,0.135
13.5556,0.13
13.5583,0.105
13.5611,0.09
13.5639,0.065
13.5667,0.025
13.5694,0.005
13.5722,0.0
13.575,-0.015
13.5778,-0.02
13.5806,-0.035
13.5833,-0.05
13.5861,-0.08
13.5889,-0.1
13.5917,-0.115
13.5944,-0.14
13.5972,-0.165
13.6,-0.205
13.6028,-0.245
13.6056,-0.29
13.6083,-0.32
13.6111,-0.345
13.6139,-0.35
13.6167,-0.36
13.6194,-0.37
13.6222,-0.375
13.625,-0.41
13.6278,-0.425
13.6306,-0.44
13.6333,-0.46
13.6361,-0.465
13.6389,-0.45
13.6417,-0.45
13.6444,-0.46
13.6472,-0.46
13.65,-0.465
13.6528,-0.445
13.6556,-0.425
13.6583,-0.405
13.6611,-0.37
13.6639,-0.34
13.6667,-0.31
13.6694,-0.295
13.6722,-0.28
13.675,-0.27
13.6778,-0.255
13.6806,-0.22
13.6833,-0.19
13.6861,-0.175
13.6889,-0.175
13.6917,-0.18
13.6944,-0.2
13.6972,-0.24
13.7,-0.285
13.7028,-0.34
13.7056,-0.4
13.7083,-0.46
13.7111,-0.515
13.7139,-0.57
13.7167,-0.615
13.7194,-0.64
13.7222,-0.65
13.725,-0.615
13.7278,-0.605
13.7306,-0.605
13.7333,-0.61
13.7361,-0.62
13.7389,-0.645
13.7417,-0.65
13.7444,-0.655
13.7472,-0.65
13.75,-0.645
13.7528,-0.635
13.7556,-0.62
13.7583,-0.615
13.7611,-0.615
13.7639,-0.63
13.7667,-0.63
13.7694,-0.65
13.7722,-0.645
13.775,-0.625
13.7778,-0.615
13.7806,-0.625
13.7833,-0.62
13.7861,-0.635
13.7889,-0.65
13.7917,-0.65
13.7944,-0.63
13.7972,-0.57
13.8,-0.42
13.8028,-0.215
13.8056,0.065
13.8083,0.4
13.8111,0.805
13.8139,1.215
13.8167,1.59
13.8194,1.86
13.8222,1.935
13.825,1.8
13.8278,1.49
13.8306,1.09
13.8333,0.65
13.8361,0.215
13.8389,-0.14
13.8417,-0.435
13.8444,-0.655
13.8472,-0.855
13.85,-1.02
13.8528,-1.16
13.8556,-1.22
13.8583,-1.195
13.8611,-1.1
13.8639,-0.99
13.8667,-0.895
13.8694,-0.825
13.8722,-0.81
13.875,-0.82
13.8778,-0.865
13.8806,-0.895
13.8833,-0.905
13.8861,-0.89
13.8889,-0.885
13.8917,-0.885
13.8944,-0.875
13.8972,-0.89
13.9,-0.905
13.9028,-0.925
13.9056,-0.93
13.9083,-0.935
13.9111,-0.94
13.9139,-0.935
13.9167,-0.925
13.9194,-0.94
13.9222,-0.945
13.925,-0.95
13.9278,-0.965
13.9306,-0.955
13.9333,-0.96
13.9361,-0.945
13.9389,-0.95
13.9417,-0.955
13.9444,-0.96
13.9472,-0.965
13.95,-0.97
13.9528,-0.945
13.9556,-0.92
13.9583,-0.88
13.9611,-0.865
13.9639,-0.85
13.9667,-0.835
13.9694,-0.825
13.9722,-0.815
13.975,-0.78
13.9778,-0.75
13.9806,-0.705
13.9833,-0.68
13.9861,-0.67
13.9889,-0.645
13.9917,-0.63
13.9944,-0.605
13.9972,-0.565
14.0,-0.51
14.0028,-0.475
14.0056,-0.44
14.0083,-0.395
14.0111,-0.365
14.0139,-0.325
14.0167,-0.275
14.0194,-0.23
14.0222,-0.175
14.025,-0.135
14.0278,-0.1
14.0306,-0.07
14.0333,-0.06
14.0361,-0.04
14.0389,-0.015
14.0417,0.03
14.0444,0.065
14.0472,0.115
14.05,0.16
14.0528,0.175
14.0556,0.2
14.0583,0.2
14.0611,0.195
14.0639,0.19
14.0667,0.2
14.0694,0.205
14.0722,0.195
14.075,0.175
14.0778,0.17
14.0806,0.16
14.0833,0.16
14.0861,0.165
14.0889,0.16
14.0917,0.155
14.0944,0.14
14.0972,0.095
14.1,0.07
14.1028,0.035
14.1056,-0.005
14.1083,-0.02
14.1111,-0.045
14.1139,-0.065
14.1167,-0.09
14.1194,-0.12
14.1222,-0.12
14.125,-0.15
14.1278,-0.175
14.1306,-0.195
14.1333,-0.22
14.1361,-0.24
14.1389,-0.255
14.1417,-0.29
14.1444,-0.325
14.1472,-0.36
14.15,-0.395
14.1528,-0.41
14.1556,-0.43
14.1583,-0.47
14.1611,-0.495
14.1639,-0.525
14.1667,-0.545
14.1694,-0.57
14.1722,-0.58
14.175,-0.595
14.1778,-0.585
14.1806,-0.585
14.1833,-0.585
14.1861,-0.58
14.1889,-0.58
14.1917,-0.585
14.1944,-0.59
14.1972,-0.595
14.2,-0.595
14.2028,-0.595
14.2056,-0.58
14.2083,-0.56
14.2111,-0.515
14.2139,-0.46
14.2167,-0.42
14.2194,-0.365
14.2222,-0.345
14.225,-0.32
14.2278,-0.31
14.2306,-0.325
14.2333,-0.305
14.2361,-0.28
14.2389,-0.26
14.2417,-0.25
14.2444,-0.255
14.2472,-0.275
14.25,-0.335
14.2528,-0.375
14.2556,-0.455
14.2583,-0.525
14.2611,-0.575
14.2639,-0.605
14.2667,-0.64
14.2694,-0.66
14.2722,-0.665
14.275,-0.68
14.2778,-0.675
14.2806,-0.655
14.2833,-0.645
14.2861,-0.645
14.2889,-0.65
14.2917,-0.66
14.2944,-0.68
14.2972,-0.695
14.3,-0.71
14.3028,-0.7
14.3056,-0.67
14.3083,-0.66
14.3111,-0.65
14.3139,-0.645
14.3167,-0.645
14.3194,-0.65
14.3222,-0.66
14.325,-0.66
14.3278,-0.655
14.3306,-0.655
14.3333,-0.67
14.3361,-0.685
14.3389,-0.715
14.3417,-0.71
14.3444,-0.61
14.3472,-0.445
14.35,-0.195
14.3528,0.13
14.3556,0.54
14.3583,0.98
14.3611,1.41
14.3639,1.775
14.3667,1.985
14.3694,1.97
14.3722,1.72
14.375,1.34
14.3778,0.88
14.3806,0.42
14.3833,-0.03
14.3861,-0.43
14.3889,-0.785
14.3917,-1.085
14.3944,-1.315
14.3972,-1.445
14.4,-1.475
14.4028,-1.405
14.4056,-1.3
14.4083,-1.165
14.4111,-1.05
14.4139,-0.97
14.4167,-0.925
14.4194,-0.935
14.4222,-0.965
14.425,-0.99
14.4278,-1.02
14.4306,-1.035
14.4333,-1.045
14.4361,-1.04
14.4389,-1.05
14.4417,-1.03
14.4444,-1.035
14.4472,-1.04
14.45,-1.055
14.4528,-1.05
14.4556,-1.06
14.4583,-1.065
14.4611,-1.055
14.4639,-1.045
14.4667,-1.055
14.4694,-1.07
14.4722,-1.08
14.475,-1.095
14.4778,-1.1
14.4806,-1.09
14.4833,-1.06
14.4861,-1.04
14.4889,-1.02
14.4917,-1.01
14.4944,-1.005
14.4972,-1.01
14.5,-1.01
14.5028,-1.0
14.5056,-0.985
14.5083,-0.94
14.5111,-0.915
14.5139,-0.89
14.5167,-0.875
14.5194,-0.865
14.5222,-0.845
14.525,-0.83
14.5278,-0.805
14.5306,-0.765
14.5333,-0.745
14.5361,-0.71
14.5389,-0.705
14.5417,-0.68
14.5444,-0.645
14.5472,-0.615
14.55,-0.58
14.5528,-0.54
14.5556,-0.505
14.5583,-0.465
14.5611,-0.43
14.5639,-0.405
14.5667,-0.39
14.5694,-0.365
14.5722,-0.33
14.575,-0.29
14.5778,-0.245
14.5806,-0.2
14.5833,-0.17
14.5861,-0.14
14.5889,-0.105
14.5917,-0.08
14.5944,-0.055
14.5972,-0.03
14.6,0.0
14.6028,0.02
14.6056,0.035
14.6083,0.025
14.6111,0.025
14.6139,0.045
14.6167,0.06
14.6194,0.065
14.6222,0.085
14.625,0.095
14.6278,0.08
14.6306,0.065
14.6333,0.04
14.6361,0.015
14.6389,0.01
14.6417,-0.025
14.6444,-0.035
14.6472,-0.05
14.65,-0.05
14.6528,-0.075
14.6556,-0.1
14.6583,-0.135
14.6611,-0.16
14.6639,-0.19
14.6667,-0.215
14.6694,-0.22
14.6722,-0.255
14.675,-0.275
14.6778,-0.305
14.6806,-0.325
14.6833,-0.36
14.6861,-0.36
14.6889,-0.38
14.6917,-0.395
14.6944,-0.415
14.6972,-0.44
14.7,-0.485
14.7028,-0.525
14.7056,-0.56
14.7083,-0.57
14.7111,-0.585
14.7139,-0.565
14.7167,-0.575
14.7194,-0.57
14.7222,-0.57
14.725,-0.585
14.7278,-0.585
14.7306,-0.6
14.7333,-0.61
14.7361,-0.605
14.7389,-0.605
14.7417,-0.62
14.7444,-0.62
14.7472,-0.61
14.75,-0.605
14.7528,-0.575
14.7556,-0.54
14.7583,-0.495
14.7611,-0.465
14.7639,-0.44
14.7667,-0.415
14.7694,-0.395
14.7722,-0.38
14.775,-0.35
14.7778,-0.325
14.7806,-0.285
14.7833,-0.27
14.7861,-0.255
14.7889,-0.25
14.7917,-0.26
14.7944,-0.285
14.7972,-0.315
14.8,-0.335
14.8028,-0.375
14.8056,-0.415
14.8083,-0.465
14.8111,-0.535
14.8139,-0.59
14.8167,-0.625
14.8194,-0.67
14.8222,-0.675
14.825,-0.695
14.8278,-0.695
14.8306,-0.685
14.8333,-0.695
14.8361,-0.705
14.8389,-0.71
14.8417,-0.725
14.8444,-0.715
14.8472,-0.72
14.85,-0.7
14.8528,-0.68
14.8556,-0.685
14.8583,-0.68
14.8611,-0.685
14.8639,-0.7
14.8667,-0.725
14.8694,-0.73
14.8722,-0.735
14.875,-0.725
14.8778,-0.715
14.8806,-0.7
14.8833,-0.71
14.8861,-0.71
14.8889,-0.74
14.8917,-0.76
14.8944,-0.775
14.8972,-0.795
14.9,-0.765
14.9028,-0.685
14.9056,-0.555
14.9083,-0.36
14.9111,-0.105
14.9139,0.21
14.9167,0.575
14.9194,0.97
14.9222,1.37
14.925,1.695
14.9278,1.865
14.9306,1.82
14.9333,1.565
14.9361,1.185
14.9389,0.715
14.9417,0.24
14.9444,-0.185
14.9472,-0.55
14.95,-0.85
14.9528,-1.1
14.9556,-1.315
14.9583,-1.465
14.9611,-1.515
14.9639,-1.465
14.9667,-1.35
14.9694,-1.205
14.9722,-1.08
14.975,-0.99
14.9778,-0.955
14.9806,-0.96
14.9833,-1.0
14.9861,-1.025
14.9889,-1.045
14.9917,-1.05
14.9944,-1.05
14.9972,-1.06
15.0,-1.065
15.0028,-1.09
15.0056,-1.105
15.0083,-1.11
15.0111,-1.12
15.0139,-1.11
15.0167,-1.1
15.0194,-1.1
15.0222,-1.105
15.025,-1.11
15.0278,-1.125
15.0306,-1.14
15.0333,-1.155
15.0361,-1.155
15.0389,-1.145
15.0417,-1.14
15.0444,-1.145
15.0472,-1.145
15.05,-1.14
15.0528,-1.13
15.0556,-1.125
15.0583,-1.105
15.0611,-1.095
15.0639,-1.085
15.0667,-1.065
15.0694,-1.065
15.0722,-1.065
15.075,-1.04
15.0778,-1.025
15.0806,-1.0
15.0833,-0.97
15.0861,-0.95
15.0889,-0.92
15.0917,-0.885
15.0944,-0.87
15.0972,-0.86
15.1,-0.83
15.1028,-0.785
15.1056,-0.75
15.1083,-0.705
15.1111,-0.66
15.1139,-0.615
15.1167,-0.585
15.1194,-0.55
15.1222,-0.505
15.125,-0.46
15.1278,-0.425
15.1306,-0.38
15.1333,-0.35
15.1361,-0.325
15.1389,-0.315
15.1417,-0.27
15.1444,-0.235
15.1472,-0.185
15.15,-0.125
15.1528,-0.07
15.1556,-0.03
15.1583,0.0
15.1611,0.015
15.1639,0.025
15.1667,0.04
15.1694,0.065
15.1722,0.085
15.175,0.09
15.1778,0.12
15.1806,0.125
15.1833,0.13
15.1861,0.12
15.1889,0.11
15.1917,0.11
15.1944,0.095
15.1972,0.075
15.2,0.07
15.2028,0.055
15.2056,0.035
15.2083,0.025
15.2111,0.005
15.2139,-0.015
15.2167,-0.015
15.2194,-0.04
15.2222,-0.055
15.225,-0.1
15.2278,-0.14
15.2306,-0.165
15.2333,-0.2
15.2361,-0.225
15.2389,-0.23
15.2417,-0.25
15.2444,-0.27
15.2472,-0.29
15.25,-0.325
15.2528,-0.35
15.2556,-0.375
15.2583,-0.39
15.2611,-0.415
15.2639,-0.435
15.2667,-0.46
15.2694,-0.475
15.2722,-0.51
15.275,-0.55
15.2778,-0.545
15.2806,-0.525
15.2833,-0.515
15.2861,-0.51
15.2889,-0.495
15.2917,-0.515
15.2944,-0.53
15.2972,-0.55
15.3,-0.55
15.3028,-0.535
15.3056,-0.505
15.3083,-0.48
15.3111,-0.44
15.3139,-0.415
15.3167,-0.375
15.3194,-0.355
15.3222,-0.325
15.325,-0.31
15.3278,-0.285
15.3306,-0.255
15.3333,-0.235
15.3361,-0.23
15.3389,-0.235
15.3417,-0.245
15.3444,-0.255
15.3472,-0.27
15.35,-0.295
15.3528,-0.325
15.3556,-0.385
15.3583,-0.445
15.3611,-0.51
15.3639,-0.57
15.3667,-0.61
15.3694,-0.645
15.3722,-0.655
15.375,-0.645
15.3778,-0.655
15.3806,-0.655
15.3833,-0.645
15.3861,-0.64
15.3889,-0.645
15.3917,-0.655
15.3944,-0.645
15.3972,-0.645
15.4,-0.645
15.4028,-0.645
15.4056,-0.665
15.4083,-0.675
15.4111,-0.675
15.4139,-0.67
15.4167,-0.655
15.4194,-0.635
15.4222,-0.6
15.425,-0.595
15.4278,-0.6
15.4306,-0.625
15.4333,-0.65
15.4361,-0.67
15.4389,-0.69
15.4417,-0.715
15.4444,-0.705
15.4472,-0.65
15.45,-0.56
15.4528,-0.39
15.4556,-0.155
15.4583,0.16
15.4611,0.535
15.4639,0.955
15.4667,1.365
15.4694,1.72
15.4722,1.935
15.475,1.96
15.4778,1.795
15.4806,1.51
15.4833,1.16
15.4861,0.78
15.4889,0.4
15.4917,0.025
15.4944,-0.345
15.4972,-0.685
15.5,-0.99
15.5028,-1.22
15.5056,-1.335
15.5083,-1.325
15.5111,-1.215
15.5139,-1.07
15.5167,-0.94
15.5194,-0.845
15.5222,-0.815
15.525,-0.84
15.5278,-0.88
15.5306,-0.92
15.5333,-0.945
15.5361,-0.965
15.5389,-0.97
15.5417,-0.975
15.5444,-0.975
15.5472,-0.97
15.55,-0.975
15.5528,-0.975
15.5556,-0.98
15.5583,-0.98
15.5611,-0.985
15.5639,-1.0
15.5667,-1.015
15.5694,-1.04
15.5722,-1.05
15.575,-1.07
15.5778,-1.065
15.5806,-1.06
15.5833,-1.055
15.5861,-1.045
15.5889,-1.055
15.5917,-1.06
15.5944,-1.055
15.5972,-1.07
15.6,-1.08
15.6028,-1.07
15.6056,-1.055
15.6083,-1.05
15.6111,-1.045
15.6139,-1.025
15.6167,-1.01
15.6194,-1.0
15.6222,-0.97
15.625,-0.955
15.6278,-0.925
15.6306,-0.93
15.6333,-0.9
15.6361,-0.88
15.6389,-0.865
15.6417,-0.83
15.6444,-0.78
15.6472,-0.74
15.65,-0.675
15.6528,-0.62
15.6556,-0.585
15.6583,-0.55
15.6611,-0.51
15.6639,-0.465
15.6667,-0.42
15.6694,-0.385
15.6722,-0.35
15.675,-0.32
15.6778,-0.28
15.6806,-0.245
15.6833,-0.195
15.6861,-0.155
15.6889,-0.105
15.6917,-0.04
15.6944,0.0
15.6972,0.035
15.7,0.055
15.7028,0.085
15.7056,0.105
15.7083,0.13
15.7111,0.165
15.7139,0.195
15.7167,0.23
15.7194,0.25
15.7222,0.28
15.725,0.275
15.7278,0.25
15.7306,0.255
15.7333,0.24
15.7361,0.225
15.7389,0.23
15.7417,0.22
15.7444,0.21
15.7472,0.195
15.75,0.17
15.7528,0.16
15.7556,0.13
15.7583,0.13
15.7611,0.12
15.7639,0.095
15.7667,0.05
15.7694,0.03
15.7722,0.015
15.775,-0.01
15.7778,-0.02
15.7806,-0.03
15.7833,-0.045
15.7861,-0.045
15.7889,-0.06
15.7917,-0.1
15.7944,-0.13
15.7972,-0.175
15.8,-0.205
15.8028,-0.235
15.8056,-0.265
15.8083,-0.275
15.8111,-0.295
15.8139,-0.315
15.8167,-0.32
15.8194,-0.345
15.8222,-0.365
15.825,-0.405
15.8278,-0.41
15.8306,-0.41
15.8333,-0.42
15.8361,-0.44
15.8389,-0.455
15.8417,-0.47
15.8444,-0.47
15.8472,-0.475
15.85,-0.475
15.8528,-0.46
15.8556,-0.45
15.8583,-0.43
15.8611,-0.405
15.8639,-0.38
15.8667,-0.36
15.8694,-0.335
15.8722,-0.32
15.875,-0.29
15.8778,-0.26
15.8806,-0.235
15.8833,-0.21
15.8861,-0.185
15.8889,-0.185
15.8917,-0.155
15.8944,-0.15
15.8972,-0.15
15.9,-0.155
15.9028,-0.17
15.9056,-0.2
15.9083,-0.25
15.9111,-0.315
15.9139,-0.375
15.9167,-0.43
15.9194,-0.49
15.9222,-0.525
15.925,-0.53
15.9278,-0.535
15.9306,-0.56
15.9333,-0.575
15.9361,-0.59
15.9389,-0.595
15.9417,-0.6
15.9444,-0.59
15.9472,-0.595
15.95,-0.575
15.9528,-0.57
15.9556,-0.575
15.9583,-0.59
15.9611,-0.61
15.9639,-0.615
15.9667,-0.605
15.9694,-0.615
15.9722,-0.6
15.975,-0.605
15.9778,-0.595
15.9806,-0.605
15.9833,-0.6
15.9861,-0.595
15.9889,-0.6
15.9917,-0.59
15.9944,-0.62
15.9972,-0.635
16.0,-0.655
16.0028,-0.655
16.0056,-0.62
16.0083,-0.52
16.0111,-0.335
16.0139,-0.08
16.0167,0.23
16.0194,0.57
16.0222,0.975
16.025,1.37
16.0278,1.69
16.0306,1.845
16.0333,1.77
16.0361,1.485
16.0389,1.055
16.0417,0.55
16.0444,0.055
16.0472,-0.385
16.05,-0.745
16.0528,-1.0
16.0556,-1.195
16.0583,-1.32
16.0611,-1.37
16.0639,-1.325
16.0667,-1.245
16.0694,-1.13
16.0722,-1.025
16.075,-0.965
16.0778,-0.92
16.0806,-0.91
16.0833,-0.91
16.0861,-0.93
16.0889,-0.955
16.0917,-0.97
16.0944,-0.98
16.0972,-0.99
16.1,-0.99
16.1028,-0.995
16.1056,-1.005
16.1083,-1.02
16.1111,-1.025
16.1139,-1.035
16.1167,-1.04
16.1194,-1.045
16.1222,-1.045
16.125,-1.04
16.1278,-1.035
16.1306,-1.035
16.1333,-1.045
16.1361,-1.045
16.1389,-1.055
16.1417,-1.045
16.1444,-1.035
16.1472,-1.035
16.15,-1.015
16.1528,-0.995
16.1556,-0.98
16.1583,-0.965
16.1611,-0.945
16.1639,-0.93
16.1667,-0.915
16.1694,-0.9
16.1722,-0.875
16.175,-0.86
16.1778,-0.845
16.1806,-0.83
16.1833,-0.81
16.1861,-0.765
16.1889,-0.73
16.1917,-0.68
16.1944,-0.65
16.1972,-0.62
16.2,-0.59
16.2028,-0.58
16.2056,-0.545
16.2083,-0.5
16.2111,-0.45
16.2139,-0.4
16.2167,-0.355
16.2194,-0.325
16.2222,-0.3
16.225,-0.27
16.2278,-0.245
16.2306,-0.21
16.2333,-0.17
16.2361,-0.125
16.2389,-0.1
16.2417,-0.06
16.2444,-0.025
16.2472,0.005
16.25,0.045
16.2528,0.055
16.2556,0.09
16.2583,0.12
16.2611,0.13
16.2639,0.12
16.2667,0.115
16.2694,0.115
16.2722,0.095
16.275,0.1
16.2778,0.095
16.2806,0.095
16.2833,0.08
16.2861,0.06
16.2889,0.04
16.2917,0.02
16.2944,-0.005
16.2972,-0.025
16.3,-0.05
16.3028,-0.07
16.3056,-0.11
16.3083,-0.155
16.3111,-0.18
16.3139,-0.2
16.3167,-0.21
16.3194,-0.22
16.3222,-0.235
16.325,-0.25
16.3278,-0.28
16.3306,-0.315
16.3333,-0.35
16.3361,-0.385
16.3389,-0.425
16.3417,-0.44
16.3444,-0.47
16.3472,-0.485
16.35,-0.515
16.3528,-0.53
16.3556,-0.555
16.3583,-0.565
16.3611,-0.57
16.3639,-0.58
16.3667,-0.605
16.3694,-0.625
16.3722,-0.64
16.375,-0.65
16.3778,-0.63
16.3806,-0.615
16.3833,-0.59
16.3861,-0.575
16.3889,-0.57
16.3917,-0.605
16.3944,-0.615
16.3972,-0.615
16.4,-0.6
16.4028,-0.575
16.4056,-0.54
16.4083,-0.5
16.4111,-0.465
16.4139,-0.425
16.4167,-0.39
16.4194,-0.355
16.4222,-0.315
16.425,-0.29
16.4278,-0.275
16.4306,-0.26
16.4333,-0.26
16.4361,-0.28
16.4389,-0.3
16.4417,-0.335
16.4444,-0.365
16.4472,-0.425
16.45,-0.475
16.4528,-0.525
16.4556,-0.575
16.4583,-0.615
16.4611,-0.64
16.4639,-0.635
16.4667,-0.645
16.4694,-0.66
16.4722,-0.67
16.475,-0.68
16.4778,-0.685
16.4806,-0.685
16.4833,-0.68
16.4861,-0.665
16.4889,-0.65
16.4917,-0.645
16.4944,-0.645
16.4972,-0.645
16.5,-0.645
16.5028,-0.64
16.5056,-0.645
16.5083,-0.65
16.5111,-0.645
16.5139,-0.645
16.5167,-0.65
16.5194,-0.65
16.5222,-0.66
16.525,-0.68
16.5278,-0.67
16.5306,-0.685
16.5333,-0.68
16.5361,-0.64
16.5389,-0.535
16.5417,-0.37
16.5444,-0.11
16.5472,0.2
16.55,0.58
16.5528,0.995
16.5556,1.395
16.5583,1.725
16.5611,1.94
16.5639,1.985
16.5667,1.845
16.5694,1.525
16.5722,1.11
16.575,0.64
16.5778,0.165
16.5806,-0.275
16.5833,-0.66
16.5861,-0.985
16.5889,-1.25
16.5917,-1.4
16.5944,-1.43
16.5972,-1.37
16.6,-1.26
16.6028,-1.135
16.6056,-1.035
16.6083,-0.975
16.6111,-0.945
16.6139,-0.955
16.6167,-0.97
16.6194,-0.99
16.6222,-1.0
16.625,-1.01
16.6278,-1.015
16.6306,-1.02
16.6333,-1.04
16.6361,-1.05
16.6389,-1.05
16.6417,-1.07
16.6444,-1.07
16.6472,-1.05
16.65,-1.06
16.6528,-1.06
16.6556,-1.07
16.6583,-1.085
16.6611,-1.09
16.6639,-1.095
16.6667,-1.09
16.6694,-1.09
16.6722,-1.09
16.675,-1.105
16.6778,-1.105
16.6806,-1.11
16.6833,-1.095
16.6861,-1.08
16.6889,-1.065
16.6917,-1.02
16.6944,-1.005
16.6972,-1.01
16.7,-1.005
16.7028,-1.005
16.7056,-1.01
16.7083,-0.985
16.7111,-0.955
16.7139,-0.925
16.7167,-0.885
16.7194,-0.865
16.7222,-0.835
16.725,-0.82
16.7278,-0.795
16.7306,-0.75
16.7333,-0.715
16.7361,-0.68
16.7389,-0.65
16.7417,-0.63
16.7444,-0.615
16.7472,-0.59
16.75,-0.555
16.7528,-0.515
16.7556,-0.465
16.7583,-0.425
16.7611,-0.375
16.7639,-0.335
16.7667,-0.31
16.7694,-0.295
16.7722,-0.265
16.775,-0.235
16.7778,-0.19
16.7806,-0.145
16.7833,-0.105
16.7861,-0.055
16.7889,-0.02
16.7917,0.005
16.7944,0.02
16.7972,0.04
16.8,0.065
16.8028,0.09
16.8056,0.105
16.8083,0.1
16.8111,0.1
16.8139,0.1
16.8167,0.085
16.8194,0.095
16.8222,0.1
16.825,0.115
16.8278,0.125
16.8306,0.1
16.8333,0.075
16.8361,0.035
16.8389,0.015
16.8417,-0.005
16.8444,-0.03
16.8472,-0.035
16.85,-0.05
16.8528,-0.07
16.8556,-0.08
16.8583,-0.115
16.8611,-0.155
16.8639,-0.175
16.8667,-0.21
16.8694,-0.225
16.8722,-0.245
16.875,-0.27
16.8778,-0.3
16.8806,-0.325
16.8833,-0.355
16.8861,-0.375
16.8889,-0.39
16.8917,-0.405
16.8944,-0.42
16.8972,-0.455
16.9,-0.48
16.9028,-0.495
16.9056,-0.51
16.9083,-0.52
16.9111,-0.52
16.9139,-0.495
16.9167,-0.485
16.9194,-0.49
16.9222,-0.49
16.925,-0.505
16.9278,-0.52
16.9306,-0.515
16.9333,-0.51
16.9361,-0.48
16.9389,-0.46
16.9417,-0.43
16.9444,-0.4
16.9472,-0.365
16.95,-0.36
16.9528,-0.33
16.9556,-0.3
16.9583,-0.275
16.9611,-0.245
16.9639,-0.22
16.9667,-0.21
16.9694,-0.225
16.9722,-0.23
16.975,-0.235
16.9778,-0.25
16.9806,-0.28
16.9833,-0.33
16.9861,-0.395
16.9889,-0.46
16.9917,-0.54
16.9944,-0.6
16.9972,-0.63
17.0,-0.635
17.0028,-0.635
17.0056,-0.64
17.0083,-0.645
17.0111,-0.66
17.0139,-0.655
17.0167,-0.665
17.0194,-0.655
17.0222,-0.645
17.025,-0.635
17.0278,-0.635
17.0306,-0.64
17.0333,-0.66
17.0361,-0.67
17.0389,-0.67
17.0417,-0.675
17.0444,-0.665
17.0472,-0.645
17.05,-0.635
17.0528,-0.625
17.0556,-0.635
17.0583,-0.645
17.0611,-0.66
17.0639,-0.685
17.0667,-0.685
17.0694,-0.7
17.0722,-0.695
17.075,-0.63
17.0778,-0.495
17.0806,-0.305
17.0833,-0.045
17.0861,0.255
17.0889,0.625
17.0917,1.02
17.0944,1.405
17.0972,1.735
17.1,1.91
17.1028,1.885
17.1056,1.665
17.1083,1.3
17.1111,0.865
17.1139,0.375
17.1167,-0.095
17.1194,-0.51
17.1222,-0.865
17.125,-1.165
17.1278,-1.345
17.1306,-1.415
17.1333,-1.375
17.1361,-1.265
17.1389,-1.115
17.1417,-0.99
17.1444,-0.9
17.1472,-0.87
17.15,-0.875
17.1528,-0.91
17.1556,-0.94
17.1583,-0.955
17.1611,-0.955
17.1639,-0.97
17.1667,-0.98
17.1694,-0.985
17.1722,-0.99
17.175,-0.995
17.1778,-0.995
17.1806,-0.985
17.1833,-0.99
17.1861,-0.99
17.1889,-0.995
17.1917,-1.02
17.1944,-1.03
17.1972,-1.04
17.2,-1.04
17.2028,-1.045
17.2056,-1.04
17.2083,-1.055
17.2111,-1.065
17.2139,-1.065
17.2167,-1.06
17.2194,-1.04
17.2222,-1.035
17.225,-1.01
17.2278,-1.01
17.2306,-1.0
17.2333,-1.015
17.2361,-1.01
17.2389,-1.01
17.2417,-0.985
17.2444,-0.96
17.2472,-0.935
17.25,-0.895
17.2528,-0.85
17.2556,-0.835
17.2583,-0.79
17.2611,-0.75
17.2639,-0.72
17.2667,-0.68
17.2694,-0.645
17.2722,-0.63
17.275,-0.605
17.2778,-0.57
17.2806,-0.52
17.2833,-0.47
17.2861,-0.415
17.2889,-0.37
17.2917,-0.315
17.2944,-0.27
17.2972,-0.235
17.3,-0.185
17.3028,-0.16
17.3056,-0.13
17.3083,-0.085
17.3111,-0.025
17.3139,0.01
17.3167,0.04
17.3194,0.085
17.3222,0.1
17.325,0.13
17.3278,0.15
17.3306,0.165
17.3333,0.195
17.3361,0.2
17.3389,0.205
17.3417,0.19
17.3444,0.195
17.3472,0.195
17.35,0.195
17.3528,0.195
17.3556,0.185
17.3583,0.175
17.3611,0.14
17.3639,0.12
17.3667,0.09
17.3694,0.08
17.3722,0.065
17.375,0.05
17.3778,0.04
17.3806,0.025
17.3833,-0.01
17.3861,-0.035
17.3889,-0.05
17.3917,-0.08
17.3944,-0.095
17.3972,-0.135
17.4,-0.15
17.4028,-0.185
17.4056,-0.225
17.4083,-0.265
17.4111,-0.295
17.4139,-0.31
17.4167,-0.315
17.4194,-0.325
17.4222,-0.33
17.425,-0.36
17.4278,-0.385
17.4306,-0.415
17.4333,-0.44
17.4361,-0.46
17.4389,-0.47
17.4417,-0.465
17.4444,-0.495
17.4472,-0.495
17.45,-0.485
17.4528,-0.485
17.4556,-0.48
17.4583,-0.465
17.4611,-0.44
17.4639,-0.435
17.4667,-0.425
17.4694,-0.425
17.4722,-0.4
17.475,-0.385
17.4778,-0.36
17.4806,-0.33
17.4833,-0.29
17.4861,-0.27
17.4889,-0.24
17.4917,-0.215
17.4944,-0.2
17.4972,-0.19
17.5,-0.19
17.5028,-0.185
17.5056,-0.2
17.5083,-0.215
17.5111,-0.255
17.5139,-0.295
17.5167,-0.36
17.5194,-0.42
17.5222,-0.48
17.525,-0.525
17.5278,-0.55
17.5306,-0.58
17.5333,-0.575
17.5361,-0.6
17.5389,-0.6
17.5417,-0.61
17.5444,-0.605
17.5472,-0.605
17.55,-0.59
17.5528,-0.58
17.5556,-0.58
17.5583,-0.585
17.5611,-0.585
17.5639,-0.595
17.5667,-0.6
17.5694,-0.595
17.5722,-0.585
17.575,-0.59
17.5778,-0.585
17.5806,-0.585
17.5833,-0.595
17.5861,-0.595
17.5889,-0.58
17.5917,-0.58
17.5944,-0.585
17.5972,-0.59
17.6,-0.61
17.6028,-0.6
17.6056,-0.56
17.6083,-0.46
17.6111,-0.275
17.6139,0.0
17.6167,0.315
17.6194,0.695
17.6222,1.075
17.625,1.455
17.6278,1.75
17.6306,1.87
17.6333,1.77
17.6361,1.465
17.6389,1.045
17.6417,0.555
17.6444,0.055
17.6472,-0.355
17.65,-0.68
17.6528,-0.895
17.6556,-1.045
17.6583,-1.13
17.6611,-1.135
17.6639,-1.1
17.6667,-1.02
17.6694,-0.915
17.6722,-0.83
17.675,-0.79
17.6778,-0.77
17.6806,-0.79
17.6833,-0.815
17.6861,-0.84
17.6889,-0.855
17.6917,-0.87
17.6944,-0.875
17.6972,-0.88
17.7,-0.885
17.7028,-0.89
17.7056,-0.885
17.7083,-0.92
17.7111,-0.925
17.7139,-0.92
17.7167,-0.925
17.7194,-0.91
17.7222,-0.9
17.725,-0.895
17.7278,-0.895
17.7306,-0.91
17.7333,-0.925
17.7361,-0.94
17.7389,-0.945
17.7417,-0.95
17.7444,-0.945
17.7472,-0.93
17.75,-0.93
17.7528,-0.9
17.7556,-0.875
17.7583,-0.86
17.7611,-0.83
17.7639,-0.81
17.7667,-0.795
17.7694,-0.77
17.7722,-0.77
17.775,-0.755
17.7778,-0.735
17.7806,-0.71
17.7833,-0.665
17.7861,-0.625
17.7889,-0.57
17.7917,-0.525
17.7944,-0.495
17.7972,-0.46
17.8,-0.435
17.8028,-0.4
17.8056,-0.37
17.8083,-0.33
17.8111,-0.295
17.8139,-0.24
17.8167,-0.225
17.8194,-0.19
17.8222,-0.165
17.825,-0.135
17.8278,-0.1
17.8306,-0.055
17.8333,-0.01
17.8361,0.03
17.8389,0.06
17.8417,0.09
17.8444,0.1
17.8472,0.15
17.85,0.165
17.8528,0.21
17.8556,0.23
17.8583,0.26
17.8611,0.27
17.8639,0.27
17.8667,0.26
17.8694,0.25
17.8722,0.24
17.875,0.235
17.8778,0.235
17.8806,0.235
17.8833,0.22
17.8861,0.205
17.8889,0.2
17.8917,0.175
17.8944,0.14
17.8972,0.12
17.9,0.115
17.9028,0.1
17.9056,0.075
17.9083,0.035
17.9111,0.01
17.9139,-0.025
17.9167,-0.06
17.9194,-0.08
17.9222,-0.085
17.925,-0.095
17.9278,-0.115
17.9306,-0.13
17.9333,-0.165
17.9361,-0.2
17.9389,-0.24
17.9417,-0.27
17.9444,-0.29
17.9472,-0.3
17.95,-0.31
17.9528,-0.34
17.9556,-0.36
17.9583,-0.385
17.9611,-0.405
17.9639,-0.415
17.9667,-0.435
17.9694,-0.445
17.9722,-0.465
17.975,-0.485
17.9778,-0.5
17.9806,-0.505
17.9833,-0.52
17.9861,-0.51
17.9889,-0.505
17.9917,-0.495
17.9944,-0.485
17.9972,-0.5
18.0,-0.5
18.0028,-0.525
18.0056,-0.52
18.0083,-0.52
18.0111,-0.49
18.0139,-0.445
18.0167,-0.405
18.0194,-0.355
18.0222,-0.31
18.025,-0.285
18.0278,-0.27
18.0306,-0.24
18.0333,-0.215
18.0361,-0.21
18.0389,-0.19
18.0417,-0.2
18.0444,-0.2
18.0472,-0.225
18.05,-0.235
18.0528,-0.245
18.0556,-0.275
18.0583,-0.315
18.0611,-0.355
18.0639,-0.405
18.0667,-0.47
18.0694,-0.525
18.0722,-0.56
18.075,-0.575
18.0778,-0.575
18.0806,-0.565
18.0833,-0.555
18.0861,-0.55
18.0889,-0.545
18.0917,-0.555
18.0944,-0.565
18.0972,-0.57
18.1,-0.57
18.1028,-0.57
18.1056,-0.58
18.1083,-0.575
18.1111,-0.57
18.1139,-0.58
18.1167,-0.575
18.1194,-0.55
18.1222,-0.545
18.125,-0.525
18.1278,-0.525
18.1306,-0.525
18.1333,-0.535
18.1361,-0.545
18.1389,-0.55
18.1417,-0.565
18.1444,-0.56
18.1472,-0.55
18.15,-0.48
18.1528,-0.37
18.1556,-0.175
18.1583,0.06
18.1611,0.36
18.1639,0.7
18.1667,1.05
18.1694,1.395
18.1722,1.645
18.175,1.765
18.1778,1.705
18.1806,1.47
18.1833,1.155
18.1861,0.8
18.1889,0.45
18.1917,0.09
18.1944,-0.255
18.1972,-0.57
18.2,-0.86
18.2028,-1.09
18.2056,-1.255
18.2083,-1.305
18.2111,-1.27
18.2139,-1.16
18.2167,-1.045
18.2194,-0.95
18.2222,-0.875
18.225,-0.85
18.2278,-0.85
18.2306,-0.9
18.2333,-0.915
18.2361,-0.935
18.2389,-0.945
18.2417,-0.95
18.2444,-0.95
18.2472,-0.945
18.25,-0.95
18.2528,-0.95
18.2556,-0.955
18.2583,-0.96
18.2611,-0.965
18.2639,-0.98
18.2667,-0.995
18.2694,-1.02
18.2722,-1.02
18.275,-1.025
18.2778,-1.02
18.2806,-0.995
18.2833,-0.985
18.2861,-0.975
18.2889,-0.96
18.2917,-0.96
18.2944,-0.96
18.2972,-0.975
18.3,-0.97
18.3028,-0.965
18.3056,-0.955
18.3083,-0.935
18.3111,-0.915
18.3139,-0.9
18.3167,-0.88
18.3194,-0.855
18.3222,-0.825
18.325,-0.795
18.3278,-0.78
18.3306,-0.775
18.3333,-0.735
18.3361,-0.735
18.3389,-0.71
18.3417,-0.705
18.3444,-0.67
18.3472,-0.62
18.35,-0.58
18.3528,-0.535
18.3556,-0.51
18.3583,-0.475
18.3611,-0.44
18.3639,-0.415
18.3667,-0.38
18.3694,-0.34
18.3722,-0.305
18.375,-0.26
18.3778,-0.24
18.3806,-0.21
18.3833,-0.185
18.3861,-0.16
18.3889,-0.125
18.3917,-0.09
18.3944,-0.055
18.3972,-0.015
18.4,0.005
18.4028,0.045
18.4056,0.055
18.4083,0.07
18.4111,0.075
18.4139,0.1
18.4167,0.125
18.4194,0.135
18.4222,0.145
18.425,0.14
18.4278,0.13
18.4306,0.12
18.4333,0.115
18.4361,0.11
18.4389,0.095
18.4417,0.095
18.4444,0.075
18.4472,0.065
18.45,0.055
18.4528,0.035
18.4556,0.01
18.4583,-0.015
18.4611,-0.04
18.4639,-0.055
18.4667,-0.075
18.4694,-0.095
18.4722,-0.145
18.475,-0.18
18.4778,-0.215
18.4806,-0.25
18.4833,-0.245
18.4861,-0.25
18.4889,-0.26
18.4917,-0.275
18.4944,-0.3
18.4972,-0.33
18.5,-0.365
18.5028,-0.39
18.5056,-0.415
18.5083,-0.435
18.5111,-0.455
18.5139,-0.46
18.5167,-0.485
18.5194,-0.505
18.5222,-0.5
18.525,-0.505
18.5278,-0.505
18.5306,-0.505
18.5333,-0.515
18.5361,-0.51
18.5389,-0.51
18.5417,-0.535
18.5444,-0.535
18.5472,-0.53
18.55,-0.525
18.5528,-0.525
18.5556,-0.485
18.5583,-0.46
18.5611,-0.425
18.5639,-0.405
18.5667,-0.375
18.5694,-0.35
18.5722,-0.325
18.575,-0.305
18.5778,-0.29
18.5806,-0.25
18.5833,-0.225
18.5861,-0.215
18.5889,-0.205
18.5917,-0.19
18.5944,-0.185
18.5972,-0.19
18.6,-0.21
18.6028,-0.23
18.6056,-0.27
18.6083,-0.34
18.6111,-0.405
18.6139,-0.46
18.6167,-0.5
18.6194,-0.53
18.6222,-0.535
18.625,-0.54
18.6278,-0.54
18.6306,-0.555
18.6333,-0.56
18.6361,-0.57
18.6389,-0.58
18.6417,-0.595
18.6444,-0.6
18.6472,-0.59
18.65,-0.59
18.6528,-0.58
18.6556,-0.565
18.6583,-0.575
18.6611,-0.58
18.6639,-0.575
18.6667,-0.565
18.6694,-0.565
18.6722,-0.57
18.675,-0.575
18.6778,-0.575
18.6806,-0.575
18.6833,-0.575
18.6861,-0.585
18.6889,-0.585
18.6917,-0.575
18.6944,-0.585
18.6972,-0.585
18.7,-0.57
18.7028,-0.515
18.7056,-0.385
18.7083,-0.175
18.7111,0.085
18.7139,0.41
18.7167,0.765
18.7194,1.13
18.7222,1.49
18.725,1.765
18.7278,1.93
18.7306,1.91
18.7333,1.695
18.7361,1.35
18.7389,0.92
18.7417,0.455
18.7444,-0.015
18.7472,-0.415
18.75,-0.76
18.7528,-1.015
18.7556,-1.205
18.7583,-1.28
18.7611,-1.26
18.7639,-1.16
18.7667,-1.05
18.7694,-0.94
18.7722,-0.86
18.775,-0.825
18.7778,-0.825
18.7806,-0.845
18.7833,-0.865
18.7861,-0.895
18.7889,-0.915
18.7917,-0.93
18.7944,-0.93
18.7972,-0.935
18.8,-0.935
18.8028,-0.94
18.8056,-0.93
18.8083,-0.94
18.8111,-0.945
18.8139,-0.95
18.8167,-0.96
18.8194,-0.965
18.8222,-0.965
18.825,-0.96
18.8278,-0.955
18.8306,-0.955
18.8333,-0.96
18.8361,-0.965
18.8389,-0.98
18.8417,-0.995
18.8444,-1.0
18.8472,-0.995
18.85,-0.98
18.8528,-0.955
18.8556,-0.93
18.8583,-0.93
18.8611,-0.925
18.8639,-0.92
18.8667,-0.91
18.8694,-0.9
18.8722,-0.885
18.875,-0.85
18.8778,-0.835
18.8806,-0.81
18.8833,-0.795
18.8861,-0.77
18.8889,-0.75
18.8917,-0.72
18.8944,-0.67
18.8972,-0.655
18.9,-0.615
18.9028,-0.59
18.9056,-0.565
18.9083,-0.545
18.9111,-0.515
18.9139,-0.47
18.9167,-0.415
18.9194,-0.365
18.9222,-0.31
18.925,-0.27
18.9278,-0.225
18.9306,-0.195
18.9333,-0.175
18.9361,-0.15
18.9389,-0.115
18.9417,-0.08
18.9444,-0.035
18.9472,-0.005
18.95,0.04
18.9528,0.07
18.9556,0.085
18.9583,0.13
18.9611,0.175
18.9639,0.215
18.9667,0.235
18.9694,0.25
18.9722,0.265
18.975,0.255
18.9778,0.245
18.9806,0.255
18.9833,0.255
18.9861,0.265
18.9889,0.28
18.9917,0.27
18.9944,0.255
18.9972,0.24
19.0,0.21
19.0028,0.165
19.0056,0.15
19.0083,0.12
19.0111,0.12
19.0139,0.1
19.0167,0.09
19.0194,0.055
19.0222,0.045
19.025,0.01
19.0278,-0.005
19.0306,-0.015
19.0333,-0.03
19.0361,-0.06
19.0389,-0.08
19.0417,-0.12
19.0444,-0.155
19.0472,-0.185
19.05,-0.21
19.0528,-0.235
19.0556,-0.235
19.0583,-0.235
19.0611,-0.245
19.0639,-0.27
19.0667,-0.3
19.0694,-0.33
19.0722,-0.37
19.075,-0.39
19.0778,-0.395
19.0806,-0.395
19.0833,-0.39
19.0861,-0.395
19.0889,-0.4
19.0917,-0.4
19.0944,-0.4
19.0972,-0.41
19.1,-0.41
19.1028,-0.42
19.1056,-0.42
19.1083,-0.41
19.1111,-0.4
19.1139,-0.385
19.1167,-0.36
19.1194,-0.32
19.1222,-0.265
19.125,-0.225
19.1278,-0.185
19.1306,-0.155
19.1333,-0.145
19.1361,-0.13
19.1389,-0.14
19.1417,-0.14
19.1444,-0.13
19.1472,-0.12
19.15,-0.11
19.1528,-0.115
19.1556,-0.125
19.1583,-0.17
19.1611,-0.22
19.1639,-0.285
19.1667,-0.34
19.1694,-0.385
19.1722,-0.43
19.175,-0.47
19.1778,-0.5
19.1806,-0.52
19.1833,-0.535
19.1861,-0.545
19.1889,-0.535
19.1917,-0.52
19.1944,-0.515
19.1972,-0.51
19.2,-0.52
19.2028,-0.525
19.2056,-0.54
19.2083,-0.56
19.2111,-0.565
19.2139,-0.55
19.2167,-0.525
19.2194,-0.52
19.2222,-0.5
19.225,-0.5
19.2278,-0.5
19.2306,-0.505
19.2333,-0.52
19.2361,-0.525
19.2389,-0.53
19.2417,-0.53
19.2444,-0.54
19.2472,-0.54
19.25,-0.56
19.2528,-0.56
19.2556,-0.51
19.2583,-0.41
19.2611,-0.235
19.2639,0.01
19.2667,0.295
19.2694,0.63
19.2722,0.985
19.275,1.36
19.2778,1.705
19.2806,1.95
19.2833,2.01
19.2861,1.855
19.2889,1.545
19.2917,1.105
19.2944,0.595
19.2972,0.09
19.3,-0.37
19.3028,-0.75
19.3056,-1.04
19.3083,-1.215
19.3111,-1.285
19.3139,-1.235
19.3167,-1.125
19.3194,-0.995
19.3222,-0.845
19.325,-0.77
19.3278,-0.715
19.3306,-0.72
19.3333,-0.755
19.3361,-0.8
19.3389,-0.845
19.3417,-0.87
19.3444,-0.885
19.3472,-0.885
19.35,-0.87
19.3528,-0.845
19.3556,-0.845
19.3583,-0.85
19.3611,-0.865
19.3639,-0.9
19.3667,-0.915
19.3694,-0.92
19.3722,-0.935
19.375,-0.93
19.3778,-0.93
19.3806,-0.94
19.3833,-0.945
19.3861,-0.945
19.3889,-0.95
19.3917,-0.935
19.3944,-0.93
19.3972,-0.925
19.4,-0.93
19.4028,-0.935
19.4056,-0.93
19.4083,-0.935
19.4111,-0.915
19.4139,-0.89
19.4167,-0.86
19.4194,-0.83
19.4222,-0.81
19.425,-0.805
19.4278,-0.785
19.4306,-0.785
19.4333,-0.745
19.4361,-0.72
19.4389,-0.685
19.4417,-0.65
19.4444,-0.62
19.4472,-0.585
19.45,-0.565
19.4528,-0.525
19.4556,-0.49
19.4583,-0.455
19.4611,-0.4
19.4639,-0.355
19.4667,-0.325
19.4694,-0.295
19.4722,-0.26
19.475,-0.23
19.4778,-0.175
19.4806,-0.135
19.4833,-0.085
19.4861,-0.035
19.4889,0.0
19.4917,0.035
19.4944,0.065
19.4972,0.09
19.5,0.12
19.5028,0.155
19.5056,0.195
19.5083,0.22
19.5111,0.24
19.5139,0.27
19.5167,0.28
19.5194,0.29
19.5222,0.305
19.525,0.31
19.5278,0.315
19.5306,0.315
19.5333,0.305
19.5361,0.285
19.5389,0.265
19.5417,0.235
19.5444,0.21
19.5472,0.215
19.55,0.215
19.5528,0.215
19.5556,0.21
19.5583,0.19
19.5611,0.155
19.5639,0.12
19.5667,0.075
19.5694,0.055
19.5722,0.015
19.575,-0.015
19.5778,-0.03
19.5806,-0.04
19.5833,-0.07
19.5861,-0.095
19.5889,-0.115
19.5917,-0.125
19.5944,-0.125
19.5972,-0.13
19.6,-0.155
19.6028,-0.175
19.6056,-0.21
19.6083,-0.245
19.6111,-0.28
19.6139,-0.3
19.6167,-0.325
19.6194,-0.34
19.6222,-0.34
19.625,-0.36
19.6278,-0.385
19.6306,-0.405
19.6333,-0.425
19.6361,-0.44
19.6389,-0.425
19.6417,-0.425
19.6444,-0.415
19.6472,-0.41
19.65,-0.41
19.6528,-0.395
19.6556,-0.375
19.6583,-0.355
19.6611,-0.31
19.6639,-0.275
19.6667,-0.235
19.6694,-0.22
19.6722,-0.2
19.675,-0.195
19.6778,-0.175
19.6806,-0.165
19.6833,-0.135
19.6861,-0.115
19.6889,-0.105
19.6917,-0.105
19.6944,-0.12
19.6972,-0.16
19.7,-0.2
19.7028,-0.23
19.7056,-0.3
19.7083,-0.355
19.7111,-0.41
19.7139,-0.46
19.7167,-0.495
19.7194,-0.505
19.7222,-0.5
19.725,-0.485
19.7278,-0.46
19.7306,-0.45
19.7333,-0.455
19.7361,-0.46
19.7389,-0.48
19.7417,-0.5
19.7444,-0.51
19.7472,-0.51
19.75,-0.485
19.7528,-0.465
19.7556,-0.445
19.7583,-0.445
19.7611,-0.44
19.7639,-0.455
19.7667,-0.455
19.7694,-0.465
19.7722,-0.455
19.775,-0.46
19.7778,-0.46
19.7806,-0.46
19.7833,-0.465
19.7861,-0.48
19.7889,-0.49
19.7917,-0.45
19.7944,-0.365
19.7972,-0.215
19.8,0.0
19.8028,0.275
19.8056,0.6
19.8083,0.975
19.8111,1.37
19.8139,1.72
19.8167,1.965
19.8194,2.02
19.8222,1.86
19.825,1.51
19.8278,1.065
19.8306,0.575
19.8333,0.1
19.8361,-0.3
19.8389,-0.625
19.8417,-0.855
19.8444,-1.04
19.8472,-1.15
19.85,-1.175
19.8528,-1.14
19.8556,-1.035
19.8583,-0.915
19.8611,-0.785
19.8639,-0.705
19.8667,-0.685
19.8694,-0.69
19.8722,-0.75
19.875,-0.805
19.8778,-0.825
19.8806,-0.825
19.8833,-0.82
19.8861,-0.805
19.8889,-0.79
19.8917,-0.79
19.8944,-0.8
19.8972,-0.83
19.9,-0.855
19.9028,-0.86
19.9056,-0.89
19.9083,-0.88
19.9111,-0.875
19.9139,-0.865
19.9167,-0.865
19.9194,-0.86
19.9222,-0.865
19.925,-0.87
19.9278,-0.87
19.9306,-0.875
19.9333,-0.875
19.9361,-0.88
19.9389,-0.885
19.9417,-0.88
19.9444,-0.885
19.9472,-0.865
19.95,-0.84
19.9528,-0.815
19.9556,-0.79
19.9583,-0.76
19.9611,-0.74
19.9639,-0.745
19.9667,-0.72
19.9694,-0.705
19.9722,-0.675
19.975,-0.67
19.9778,-0.645
19.9806,-0.595
19.9833,-0.575
19.9861,-0.52
19.9889,-0.49
19.9917,-0.475
19.9944,-0.425
19.9972,-0.39
20.0,-0.345
20.0028,-0.3
20.0056,-0.27
20.0083,-0.245
20.0111,-0.225
20.0139,-0.195
20.0167,-0.155
20.0194,-0.105
20.0222,-0.055
20.025,-0.015
20.0278,0.03
20.0306,0.05
20.0333,0.07
20.0361,0.095
20.0389,0.13
20.0417,0.155
20.0444,0.195
20.0472,0.24
20.05,0.265
20.0528,0.29
20.0556,0.3
20.0583,0.3
20.0611,0.31
20.0639,0.31
20.0667,0.305
20.0694,0.31
20.0722,0.32
20.075,0.31
20.0778,0.305
20.0806,0.295
20.0833,0.28
20.0861,0.27
20.0889,0.26
20.0917,0.245
20.0944,0.235
20.0972,0.22
20.1,0.185
20.1028,0.14
20.1056,0.1
20.1083,0.07
20.1111,0.035
20.1139,0.035
20.1167,0.035
20.1194,0.02
20.1222,-0.01
20.125,-0.05
20.1278,-0.075
20.1306,-0.105
20.1333,-0.13
20.1361,-0.155
20.1389,-0.17
20.1417,-0.2
20.1444,-0.225
20.1472,-0.235
20.15,-0.25
20.1528,-0.26
20.1556,-0.27
20.1583,-0.295
20.1611,-0.32
20.1639,-0.345
20.1667,-0.38
20.1694,-0.42
20.1722,-0.455
20.175,-0.475
20.1778,-0.485
20.1806,-0.49
20.1833,-0.48
20.1861,-0.485
20.1889,-0.47
20.1917,-0.47
20.1944,-0.465
20.1972,-0.465
20.2,-0.48
20.2028,-0.45
20.2056,-0.44
20.2083,-0.415
20.2111,-0.395
20.2139,-0.365
20.2167,-0.33
20.2194,-0.29
20.2222,-0.255
20.225,-0.225
20.2278,-0.185
20.2306,-0.16
20.2333,-0.15
20.2361,-0.14
20.2389,-0.14
20.2417,-0.135
20.2444,-0.125
20.2472,-0.12
20.25,-0.125
20.2528,-0.145
20.2556,-0.195
20.2583,-0.25
20.2611,-0.325
20.2639,-0.4
20.2667,-0.445
20.2694,-0.48
20.2722,-0.51
20.275,-0.515
20.2778,-0.53
20.2806,-0.52
20.2833,-0.515
20.2861,-0.52
20.2889,-0.53
20.2917,-0.5
20.2944,-0.5
20.2972,-0.485
20.3,-0.51
20.3028,-0.53
20.3056,-0.525
20.3083,-0.54
20.3111,-0.53
20.3139,-0.52
20.3167,-0.51
20.3194,-0.505
20.3222,-0.5
20.325,-0.5
20.3278,-0.51
20.3306,-0.51
20.3333,-0.525
20.3361,-0.54
20.3389,-0.57
20.3417,-0.57
20.3444,-0.545
20.3472,-0.46
20.35,-0.265
20.3528,-0.015
20.3556,0.285
20.3583,0.65
20.3611,1.05
20.3639,1.455
20.3667,1.78
20.3694,1.96
20.3722,1.91
20.375,1.655
20.3778,1.24
20.3806,0.74
20.3833,0.21
20.3861,-0.25
20.3889,-0.605
20.3917,-0.895
20.3944,-1.125
20.3972,-1.275
20.4,-1.325
20.4028,-1.3
20.4056,-1.195
20.4083,-1.07
20.4111,-0.945
20.4139,-0.855
20.4167,-0.81
20.4194,-0.805
20.4222,-0.82
20.425,-0.85
20.4278,-0.885
20.4306,-0.91
20.4333,-0.93
20.4361,-0.94
20.4389,-0.93
20.4417,-0.925
20.4444,-0.925
20.4472,-0.93
20.45,-0.935
20.4528,-0.95
20.4556,-0.955
20.4583,-0.96
20.4611,-0.95
20.4639,-0.94
20.4667,-0.95
20.4694,-0.935
20.4722,-0.96
20.475,-0.975
20.4778,-0.985
20.4806,-0.99
20.4833,-0.98
20.4861,-0.96
20.4889,-0.94
20.4917,-0.925
20.4944,-0.93
20.4972,-0.91
20.5,-0.89
20.5028,-0.865
20.5056,-0.855
20.5083,-0.835
20.5111,-0.825
20.5139,-0.815
20.5167,-0.785
20.5194,-0.755
20.5222,-0.705
20.525,-0.66
20.5278,-0.63
20.5306,-0.6
20.5333,-0.575
20.5361,-0.555
20.5389,-0.52
20.5417,-0.48
20.5444,-0.445
20.5472,-0.39
20.55,-0.34
20.5528,-0.305
20.5556,-0.265
20.5583,-0.235
20.5611,-0.19
20.5639,-0.145
20.5667,-0.105
20.5694,-0.065
20.5722,-0.03
20.575,0.0
20.5778,0.03
20.5806,0.055
20.5833,0.095
20.5861,0.135
20.5889,0.17
20.5917,0.195
20.5944,0.215
20.5972,0.21
20.6,0.205
20.6028,0.205
20.6056,0.2
20.6083,0.21
20.6111,0.215
20.6139,0.22
20.6167,0.21
20.6194,0.18
20.6222,0.17
20.625,0.155
20.6278,0.135
20.6306,0.135
20.6333,0.115
20.6361,0.09
20.6389,0.055
20.6417,0.02
20.6444,-0.025
20.6472,-0.045
20.65,-0.07
20.6528,-0.075
20.6556,-0.07
20.6583,-0.085
20.6611,-0.12
20.6639,-0.165
20.6667,-0.205
20.6694,-0.245
20.6722,-0.26
20.675,-0.275
20.6778,-0.31
20.6806,-0.325
20.6833,-0.34
20.6861,-0.36
20.6889,-0.38
20.6917,-0.39
20.6944,-0.395
20.6972,-0.395
20.7,-0.405
20.7028,-0.42
20.7056,-0.435
20.7083,-0.455
20.7111,-0.46
20.7139,-0.45
20.7167,-0.44
20.7194,-0.44
20.7222,-0.435
20.725,-0.415
20.7278,-0.41
20.7306,-0.385
20.7333,-0.355
20.7361,-0.315
20.7389,-0.275
20.7417,-0.24
20.7444,-0.225
20.7472,-0.195
20.75,-0.18
20.7528,-0.17
20.7556,-0.15
20.7583,-0.135
20.7611,-0.11
20.7639,-0.095
20.7667,-0.1
20.7694,-0.13
20.7722,-0.19
20.775,-0.25
20.7778,-0.315
20.7806,-0.375
20.7833,-0.43
20.7861,-0.465
20.7889,-0.49
20.7917,-0.51
20.7944,-0.525
20.7972,-0.535
20.8,-0.545
20.8028,-0.555
20.8056,-0.54
20.8083,-0.55
20.8111,-0.545
20.8139,-0.55
20.8167,-0.555
20.8194,-0.56
20.8222,-0.555
20.825,-0.555
20.8278,-0.55
20.8306,-0.55
20.8333,-0.545
20.8361,-0.545
20.8389,-0.565
20.8417,-0.56
20.8444,-0.565
20.8472,-0.565
20.85,-0.54
20.8528,-0.54
20.8556,-0.54
20.8583,-0.56
20.8611,-0.57
20.8639,-0.59
20.8667,-0.585
20.8694,-0.5
20.8722,-0.35
20.875,-0.11
20.8778,0.185
20.8806,0.54
20.8833,0.95
20.8861,1.36
20.8889,1.74
20.8917,1.995
20.8944,2.06
20.8972,1.92
20.9,1.61
20.9028,1.21
20.9056,0.765
20.9083,0.31
20.9111,-0.125
20.9139,-0.515
20.9167,-0.825
20.9194,-1.09
20.9222,-1.235
20.925,-1.285
20.9278,-1.235
20.9306,-1.125
20.9333,-0.995
20.9361,-0.87
20.9389,-0.8
20.9417,-0.775
20.9444,-0.78
20.9472,-0.835
20.95,-0.885
20.9528,-0.92
20.9556,-0.945
20.9583,-0.93
20.9611,-0.91
20.9639,-0.895
20.9667,-0.895
20.9694,-0.9
20.9722,-0.93
20.975,-0.965
20.9778,-0.98
20.9806,-0.985
20.9833,-0.97
20.9861,-0.97
20.9889,-0.945
20.9917,-0.96
20.9944,-0.97
20.9972,-0.975
21.0,-0.99
21.0028,-1.0
21.0056,-0.995
21.0083,-1.0
21.0111,-0.995
21.0139,-0.985
21.0167,-0.99
21.0194,-0.99
21.0222,-0.965
21.025,-0.97
21.0278,-0.94
21.0306,-0.925
21.0333,-0.895
21.0361,-0.895
21.0389,-0.885
21.0417,-0.875
21.0444,-0.865
21.0472,-0.83
21.05,-0.795
21.0528,-0.76
21.0556,-0.715
21.0583,-0.68
21.0611,-0.655
21.0639,-0.615
21.0667,-0.605
21.0694,-0.58
21.0722,-0.545
21.075,-0.5
21.0778,-0.455
21.0806,-0.405
21.0833,-0.37
21.0861,-0.325
21.0889,-0.28
21.0917,-0.235
21.0944,-0.195
21.0972,-0.135
21.1,-0.11
21.1028,-0.065
21.1056,-0.025
21.1083,0.0
21.1111,0.015
21.1139,0.055
21.1167,0.105
21.1194,0.135
21.1222,0.185
21.125,0.215
21.1278,0.235
21.1306,0.25
21.1333,0.25
21.1361,0.25
21.1389,0.255
21.1417,0.265
21.1444,0.275
21.1472,0.28
21.15,0.27
21.1528,0.265
21.1556,0.25
21.1583,0.25
21.1611,0.245
21.1639,0.24
21.1667,0.235
21.1694,0.21
21.1722,0.18
21.175,0.145
21.1778,0.11
21.1806,0.085
21.1833,0.055
21.1861,0.045
21.1889,0.04
21.1917,0.025
21.1944,0.0
21.1972,-0.04
21.2,-0.07
21.2028,-0.105
21.2056,-0.135
21.2083,-0.155
21.2111,-0.175
21.2139,-0.2
21.2167,-0.21
21.2194,-0.21
21.2222,-0.25
21.225,-0.28
21.2278,-0.31
21.2306,-0.33
21.2333,-0.345
21.2361,-0.34
21.2389,-0.355
21.2417,-0.37
21.2444,-0.385
21.2472,-0.41
21.25,-0.42
21.2528,-0.41
21.2556,-0.4
21.2583,-0.39
21.2611,-0.395
21.2639,-0.4
21.2667,-0.395
21.2694,-0.405
21.2722,-0.39
21.275,-0.37
21.2778,-0.33
21.2806,-0.275
21.2833,-0.225
21.2861,-0.19
21.2889,-0.15
21.2917,-0.125
21.2944,-0.11
21.2972,-0.09
21.3,-0.08
21.3028,-0.085
21.3056,-0.085
21.3083,-0.1
21.3111,-0.14
21.3139,-0.16
21.3167,-0.19
21.3194,-0.225
21.3222,-0.3
21.325,-0.385
21.3278,-0.445
21.3306,-0.51
21.3333,-0.54
21.3361,-0.55
21.3389,-0.54
21.3417,-0.53
21.3444,-0.515
21.3472,-0.515
21.35,-0.515
21.3528,-0.52
21.3556,-0.53
21.3583,-0.54
21.3611,-0.54
21.3639,-0.53
21.3667,-0.515
21.3694,-0.51
21.3722,-0.52
21.375,-0.52
21.3778,-0.525
21.3806,-0.51
21.3833,-0.5
21.3861,-0.5
21.3889,-0.485
21.3917,-0.485
21.3944,-0.51
21.3972,-0.52
21.4,-0.535
21.4028,-0.5
21.4056,-0.415
21.4083,-0.255
21.4111,-0.03
21.4139,0.235
21.4167,0.545
21.4194,0.88
21.4222,1.24
21.425,1.6
21.4278,1.87
21.4306,1.965
21.4333,1.83
21.4361,1.505
21.4389,1.065
21.4417,0.555
21.4444,0.055
21.4472,-0.36
21.45,-0.695
21.4528,-0.94
21.4556,-1.105
21.4583,-1.2
21.4611,-1.215
21.4639,-1.18
21.4667,-1.085
21.4694,-0.96
21.4722,-0.85
21.475,-0.77
21.4778,-0.74
21.4806,-0.755
21.4833,-0.78
21.4861,-0.795
21.4889,-0.815
21.4917,-0.82
21.4944,-0.82
21.4972,-0.82
21.5,-0.835
21.5028,-0.85
21.5056,-0.87
21.5083,-0.885
21.5111,-0.905
21.5139,-0.89
21.5167,-0.885
21.5194,-0.87
21.5222,-0.875
21.525,-0.885
21.5278,-0.9
21.5306,-0.91
21.5333,-0.92
21.5361,-0.915
21.5389,-0.91
21.5417,-0.905
21.5444,-0.91
21.5472,-0.905
21.55,-0.91
21.5528,-0.915
21.5556,-0.895
21.5583,-0.875
21.5611,-0.835
21.5639,-0.815
21.5667,-0.78
21.5694,-0.765
21.5722,-0.765
21.575,-0.755
21.5778,-0.755
21.5806,-0.73
21.5833,-0.69
21.5861,-0.655
21.5889,-0.615
21.5917,-0.585
21.5944,-0.565
21.5972,-0.535
21.6,-0.495
21.6028,-0.46
21.6056,-0.41
21.6083,-0.38
21.6111,-0.34
21.6139,-0.305
21.6167,-0.29
21.6194,-0.25
21.6222,-0.21
21.625,-0.155
21.6278,-0.105
21.6306,-0.055
21.6333,-0.015
21.6361,0.015
21.6389,0.045
21.6417,0.06
21.6444,0.09
21.6472,0.125
21.65,0.17
21.6528,0.2
21.6556,0.235
21.6583,0.255
21.6611,0.27
21.6639,0.265
21.6667,0.26
21.6694,0.26
21.6722,0.27
21.675,0.28
21.6778,0.285
21.6806,0.285
21.6833,0.275
21.6861,0.26
21.6889,0.245
21.6917,0.245
21.6944,0.23
21.6972,0.235
21.7,0.225
21.7028,0.2
21.7056,0.165
21.7083,0.14
21.7111,0.105
21.7139,0.065
21.7167,0.065
21.7194,0.04
21.7222,0.03
21.725,-0.01
21.7278,-0.04
21.7306,-0.07
21.7333,-0.09
21.7361,-0.11
21.7389,-0.13
21.7417,-0.155
21.7444,-0.185
21.7472,-0.215
21.75,-0.25
21.7528,-0.3
21.7556,-0.315
21.7583,-0.32
21.7611,-0.33
21.7639,-0.34
21.7667,-0.365
21.7694,-0.39
21.7722,-0.42
21.775,-0.45
21.7778,-0.48
21.7806,-0.495
21.7833,-0.485
21.7861,-0.485
21.7889,-0.48
21.7917,-0.47
21.7944,-0.47
21.7972,-0.48
21.8,-0.495
21.8028,-0.5
21.8056,-0.5
21.8083,-0.485
21.8111,-0.475
21.8139,-0.45
21.8167,-0.41
21.8194,-0.39
21.8222,-0.36
21.825,-0.32
21.8278,-0.29
21.8306,-0.25
21.8333,-0.23
21.8361,-0.22
21.8389,-0.2
21.8417,-0.19
21.8444,-0.18
21.8472,-0.165
21.85,-0.165
21.8528,-0.15
21.8556,-0.155
21.8583,-0.165
21.8611,-0.21
21.8639,-0.265
21.8667,-0.335
21.8694,-0.405
21.8722,-0.455
21.875,-0.48
21.8778,-0.505
21.8806,-0.51
21.8833,-0.52
21.8861,-0.53
21.8889,-0.54
21.8917,-0.54
21.8944,-0.53
21.8972,-0.525
21.9,-0.535
21.9028,-0.53
21.9056,-0.535
21.9083,-0.565
21.9111,-0.555
21.9139,-0.555
21.9167,-0.555
21.9194,-0.535
21.9222,-0.525
21.925,-0.505
21.9278,-0.49
21.9306,-0.49
21.9333,-0.51
21.9361,-0.53
21.9389,-0.55
21.9417,-0.56
21.9444,-0.575
21.9472,-0.59
21.95,-0.605
21.9528,-0.605
21.9556,-0.57
21.9583,-0.48
21.9611,-0.31
21.9639,-0.055
21.9667,0.24
21.9694,0.57
21.9722,0.91
21.975,1.255
21.9778,1.58
21.9806,1.84
21.9833,1.975
21.9861,1.93
21.9889,1.74
21.9917,1.405
21.9944,0.99
21.9972,0.515
22.0,0.06
22.0028,-0.36
22.0056,-0.735
22.0083,-1.025
22.0111,-1.24
22.0139,-1.36
22.0167,-1.355
22.0194,-1.27
22.0222,-1.135
22.025,-1.005
22.0278,-0.91
22.0306,-0.85
22.0333,-0.82
22.0361,-0.825
22.0389,-0.855
22.0417,-0.875
22.0444,-0.915
22.0472,-0.935
22.05,-0.955
22.0528,-0.96
22.0556,-0.945
22.0583,-0.93
22.0611,-0.925
22.0639,-0.93
22.0667,-0.955
22.0694,-0.965
22.0722,-0.975
22.075,-0.98
22.0778,-0.985
22.0806,-0.98
22.0833,-0.965
22.0861,-0.965
22.0889,-0.965
22.0917,-0.965
22.0944,-0.98
22.0972,-0.98
22.1,-0.99
22.1028,-0.98
22.1056,-0.965
22.1083,-0.955
22.1111,-0.945
22.1139,-0.94
22.1167,-0.93
22.1194,-0.93
22.1222,-0.925
22.125,-0.895
22.1278,-0.88
22.1306,-0.835
22.1333,-0.82
22.1361,-0.8
22.1389,-0.79
22.1417,-0.775
22.1444,-0.765
22.1472,-0.745
22.15,-0.71
22.1528,-0.67
22.1556,-0.63
22.1583,-0.585
22.1611,-0.545
22.1639,-0.525
22.1667,-0.485
22.1694,-0.45
22.1722,-0.435
22.175,-0.405
22.1778,-0.38
22.1806,-0.345
22.1833,-0.3
22.1861,-0.27
22.1889,-0.225
22.1917,-0.17
22.1944,-0.125
22.1972,-0.075
22.2,-0.04
22.2028,-0.015
22.2056,-0.005
22.2083,0.015
22.2111,0.02
22.2139,0.06
22.2167,0.095
22.2194,0.135
22.2222,0.16
22.225,0.175
22.2278,0.16
22.2306,0.155
22.2333,0.155
22.2361,0.155
22.2389,0.15
22.2417,0.155
22.2444,0.16
22.2472,0.145
22.25,0.13
22.2528,0.11
22.2556,0.09
22.2583,0.085
22.2611,0.065
22.2639,0.06
22.2667,0.04
22.2694,0.025
22.2722,-0.01
22.275,-0.05
22.2778,-0.095
22.2806,-0.115
22.2833,-0.135
22.2861,-0.145
22.2889,-0.16
22.2917,-0.175
22.2944,-0.205
22.2972,-0.23
22.3,-0.28
22.3028,-0.315
22.3056,-0.34
22.3083,-0.36
22.3111,-0.385
22.3139,-0.41
22.3167,-0.425
22.3194,-0.445
22.3222,-0.465
22.325,-0.455
22.3278,-0.455
22.3306,-0.45
22.3333,-0.465
22.3361,-0.46
22.3389,-0.48
22.3417,-0.505
22.3444,-0.505
22.3472,-0.51
22.35,-0.5
22.3528,-0.49
22.3556,-0.46
22.3583,-0.445
22.3611,-0.415
22.3639,-0.39
22.3667,-0.36
22.3694,-0.33
22.3722,-0.29
22.375,-0.26
22.3778,-0.24
22.3806,-0.225
22.3833,-0.21
22.3861,-0.18
22.3889,-0.15
22.3917,-0.13
22.3944,-0.125
22.3972,-0.14
22.4,-0.18
22.4028,-0.25
22.4056,-0.32
22.4083,-0.395
22.4111,-0.46
22.4139,-0.5
22.4167,-0.53
22.4194,-0.545
22.4222,-0.57
22.425,-0.575
22.4278,-0.595
22.4306,-0.6
22.4333,-0.585
22.4361,-0.585
22.4389,-0.575
22.4417,-0.59
22.4444,-0.6
22.4472,-0.61
22.45,-0.61
22.4528,-0.61
22.4556,-0.6
22.4583,-0.58
22.4611,-0.57
22.4639,-0.575
22.4667,-0.58
22.4694,-0.595
22.4722,-0.61
22.475,-0.605
22.4778,-0.6
22.4806,-0.615
22.4833,-0.635
22.4861,-0.66
22.4889,-0.675
22.4917,-0.665
22.4944,-0.585
22.4972,-0.45
22.5,-0.215
22.5028,0.08
22.5056,0.425
22.5083,0.82
22.5111,1.245
22.5139,1.625
22.5167,1.885
22.5194,1.94
22.5222,1.775
22.525,1.46
22.5278,1.05
22.5306,0.6
22.5333,0.15
22.5361,-0.225
22.5389,-0.57
22.5417,-0.865
22.5444,-1.115
22.5472,-1.285
22.55,-1.365
22.5528,-1.33
22.5556,-1.225
22.5583,-1.08
22.5611,-0.96
22.5639,-0.86
22.5667,-0.83
22.5694,-0.845
22.5722,-0.89
22.575,-0.935
22.5778,-0.985
22.5806,-1.015
22.5833,-1.01
22.5861,-1.005
22.5889,-1.0
22.5917,-0.98
22.5944,-0.98
22.5972,-0.985
22.6,-1.01
22.6028,-1.035
22.6056,-1.045
22.6083,-1.05
22.6111,-1.045
22.6139,-1.06
22.6167,-1.065
22.6194,-1.06
22.6222,-1.065
22.625,-1.075
22.6278,-1.07
22.6306,-1.07
22.6333,-1.065
22.6361,-1.065
22.6389,-1.065
22.6417,-1.075
22.6444,-1.075
22.6472,-1.075
22.65,-1.06
22.6528,-1.04
22.6556,-1.02
22.6583,-0.99
22.6611,-0.97
22.6639,-0.955
22.6667,-0.945
22.6694,-0.94
22.6722,-0.93
22.675,-0.9
22.6778,-0.865
22.6806,-0.84
22.6833,-0.8
22.6861,-0.775
22.6889,-0.755
22.6917,-0.72
22.6944,-0.69
22.6972,-0.65
22.7,-0.61
22.7028,-0.575
22.7056,-0.525
22.7083,-0.5
22.7111,-0.465
22.7139,-0.425
22.7167,-0.375
22.7194,-0.32
22.7222,-0.27
22.725,-0.21
22.7278,-0.17
22.7306,-0.145
22.7333,-0.125
22.7361,-0.1
22.7389,-0.07
22.7417,-0.045
22.7444,-0.005
22.7472,0.03
22.75,0.06
22.7528,0.075
22.7556,0.085
22.7583,0.11
22.7611,0.13
22.7639,0.135
22.7667,0.15
22.7694,0.145
22.7722,0.145
22.775,0.13
22.7778,0.105
22.7806,0.09
22.7833,0.085
22.7861,0.09
22.7889,0.09
22.7917,0.085
22.7944,0.06
22.7972,0.045
22.8,0.015
22.8028,-0.03
22.8056,-0.055
22.8083,-0.07
22.8111,-0.095
22.8139,-0.115
22.8167,-0.13
22.8194,-0.145
22.8222,-0.175
22.825,-0.2
22.8278,-0.215
22.8306,-0.235
22.8333,-0.255
22.8361,-0.28
22.8389,-0.305
22.8417,-0.34
22.8444,-0.355
22.8472,-0.385
22.85,-0.405
22.8528,-0.435
22.8556,-0.435
22.8583,-0.42
22.8611,-0.425
22.8639,-0.43
22.8667,-0.435
22.8694,-0.46
22.8722,-0.485
22.875,-0.505
22.8778,-0.51
22.8806,-0.515
22.8833,-0.515
22.8861,-0.51
22.8889,-0.51
22.8917,-0.48
22.8944,-0.475
22.8972,-0.45
22.9,-0.41
22.9028,-0.39
22.9056,-0.36
22.9083,-0.32
22.9111,-0.305
22.9139,-0.305
22.9167,-0.295
22.9194,-0.28
22.9222,-0.26
22.925,-0.22
22.9278,-0.2
22.9306,-0.19
22.9333,-0.22
22.9361,-0.24
22.9389,-0.3
22.9417,-0.36
22.9444,-0.425
22.9472,-0.485
22.95,-0.52
22.9528,-0.55
22.9556,-0.575
22.9583,-0.605
22.9611,-0.62
22.9639,-0.63
22.9667,-0.64
22.9694,-0.64
22.9722,-0.625
22.975,-0.625
22.9778,-0.64
22.9806,-0.645
22.9833,-0.65
22.9861,-0.645
22.9889,-0.63
22.9917,-0.6
22.9944,-0.59
22.9972,-0.595
23.0,-0.59
23.0028,-0.6
23.0056,-0.605
23.0083,-0.615
23.0111,-0.62
23.0139,-0.615
23.0167,-0.625
23.0194,-0.62
23.0222,-0.645
23.025,-0.65
23.0278,-0.68
23.0306,-0.675
23.0333,-0.625
23.0361,-0.505
23.0389,-0.325
23.0417,-0.085
23.0444,0.175
23.0472,0.51
23.05,0.89
23.0528,1.305
23.0556,1.675
23.0583,1.92
23.0611,1.99
23.0639,1.84
23.0667,1.53
23.0694,1.11
23.0722,0.645
23.075,0.19
23.0778,-0.215
23.0806,-0.55
23.0833,-0.83
23.0861,-1.045
23.0889,-1.19
23.0917,-1.255
23.0944,-1.235
23.0972,-1.145
23.1,-1.03
23.1028,-0.91
23.1056,-0.825
23.1083,-0.795
23.1111,-0.815
23.1139,-0.86
23.1167,-0.9
23.1194,-0.935
23.1222,-0.955
23.125,-0.945
23.1278,-0.935
23.1306,-0.92
23.1333,-0.925
23.1361,-0.945
23.1389,-0.97
23.1417,-0.995
23.1444,-1.02
23.1472,-1.03
23.15,-1.02
23.1528,-1.0
23.1556,-1.0
23.1583,-1.01
23.1611,-1.02
23.1639,-1.02
23.1667,-1.035
23.1694,-1.04
23.1722,-1.04
23.175,-1.04
23.1778,-1.05
23.1806,-1.055
23.1833,-1.065
23.1861,-1.06
23.1889,-1.06
23.1917,-1.03
23.1944,-1.01
23.1972,-0.995
23.2,-0.975
23.2028,-0.97
23.2056,-0.97
23.2083,-0.975
23.2111,-0.95
23.2139,-0.92
23.2167,-0.89
23.2194,-0.85
23.2222,-0.81
23.225,-0.78
23.2278,-0.745
23.2306,-0.715
23.2333,-0.685
23.2361,-0.65
23.2389,-0.61
23.2417,-0.575
23.2444,-0.525
23.2472,-0.485
23.25,-0.445
23.2528,-0.4
23.2556,-0.345
23.2583,-0.295
23.2611,-0.245
23.2639,-0.19
23.2667,-0.145
23.2694,-0.105
23.2722,-0.085
23.275,-0.055
23.2778,-0.045
23.2806,-0.015
23.2833,0.025
23.2861,0.07
23.2889,0.1
23.2917,0.14
23.2944,0.17
23.2972,0.185
23.3,0.19
23.3028,0.215
23.3056,0.23
23.3083,0.235
23.3111,0.24
23.3139,0.23
23.3167,0.225
23.3194,0.195
23.3222,0.18
23.325,0.19
23.3278,0.185
23.3306,0.195
23.3333,0.175
23.3361,0.165
23.3389,0.135
23.3417,0.09
23.3444,0.06
23.3472,0.035
23.35,0.035
23.3528,0.015
23.3556,0.015
23.3583,-0.025
23.3611,-0.05
23.3639,-0.065
23.3667,-0.1
23.3694,-0.125
23.3722,-0.155
23.375,-0.18
23.3778,-0.21
23.3806,-0.24
23.3833,-0.26
23.3861,-0.285
23.3889,-0.295
23.3917,-0.3
23.3944,-0.31
23.3972,-0.31
23.4,-0.325
23.4028,-0.365
23.4056,-0.385
23.4083,-0.415
23.4111,-0.43
23.4139,-0.44
23.4167,-0.435
23.4194,-0.43
23.4222,-0.425
23.425,-0.43
23.4278,-0.435
23.4306,-0.415
23.4333,-0.395
23.4361,-0.36
23.4389,-0.335
23.4417,-0.31
23.4444,-0.295
23.4472,-0.27
23.45,-0.255
23.4528,-0.24
23.4556,-0.225
23.4583,-0.19
23.4611,-0.165
23.4639,-0.135
23.4667,-0.12
23.4694,-0.145
23.4722,-0.16
23.475,-0.21
23.4778,-0.25
23.4806,-0.305
23.4833,-0.34
23.4861,-0.4
23.4889,-0.445
23.4917,-0.48
23.4944,-0.53
23.4972,-0.555
23.5,-0.565
23.5028,-0.575
23.5056,-0.565
23.5083,-0.565
23.5111,-0.565
23.5139,-0.57
23.5167,-0.575
23.5194,-0.58
23.5222,-0.58
23.525,-0.575
23.5278,-0.57
23.5306,-0.55
23.5333,-0.545
23.5361,-0.56
23.5389,-0.56
23.5417,-0.575
23.5444,-0.58
23.5472,-0.58
23.55,-0.57
23.5528,-0.555
23.5556,-0.54
23.5583,-0.535
23.5611,-0.535
23.5639,-0.56
23.5667,-0.595
23.5694,-0.61
23.5722,-0.63
23.575,-0.6
23.5778,-0.525
23.5806,-0.38
23.5833,-0.16
23.5861,0.095
23.5889,0.43
23.5917,0.805
23.5944,1.2
23.5972,1.58
23.6,1.88
23.6028,2.04
23.6056,2.03
23.6083,1.85
23.6111,1.51
23.6139,1.135
23.6167,0.745
23.6194,0.35
23.6222,-0.04
23.625,-0.375
23.6278,-0.69
23.6306,-0.945
23.6333,-1.135
23.6361,-1.21
23.6389,-1.19
23.6417,-1.085
23.6444,-0.94
23.6472,-0.825
23.65,-0.75
23.6528,-0.74
23.6556,-0.77
23.6583,-0.815
23.6611,-0.83
23.6639,-0.865
23.6667,-0.87
23.6694,-0.865
23.6722,-0.865
23.675,-0.87
23.6778,-0.885
23.6806,-0.915
23.6833,-0.925
23.6861,-0.935
23.6889,-0.93
23.6917,-0.935
23.6944,-0.91
23.6972,-0.92
23.7,-0.935
23.7028,-0.96
23.7056,-0.97
23.7083,-0.995
23.7111,-1.0
23.7139,-1.005
23.7167,-1.005
23.7194,-0.995
23.7222,-0.975
23.725,-0.97
23.7278,-0.97
23.7306,-0.97
23.7333,-0.985
23.7361,-0.98
23.7389,-0.98
23.7417,-0.965
23.7444,-0.96
23.7472,-0.95
23.75,-0.94
23.7528,-0.915
23.7556,-0.895
23.7583,-0.855
23.7611,-0.82
23.7639,-0.79
23.7667,-0.76
23.7694,-0.755
23.7722,-0.725
23.775,-0.705
23.7778,-0.675
23.7806,-0.64
23.7833,-0.59
23.7861,-0.54
23.7889,-0.5
23.7917,-0.445
23.7944,-0.42
23.7972,-0.37
23.8,-0.32
23.8028,-0.27
23.8056,-0.23
23.8083,-0.18
23.8111,-0.135
23.8139,-0.11
23.8167,-0.07
23.8194,-0.035
23.8222,0.0
23.825,0.05
23.8278,0.095
23.8306,0.155
23.8333,0.2
23.8361,0.22
23.8389,0.255
23.8417,0.24
23.8444,0.245
23.8472,0.26
23.85,0.275
23.8528,0.295
23.8556,0.3
23.8583,0.34
23.8611,0.345
23.8639,0.35
23.8667,0.34
23.8694,0.32
23.8722,0.315
23.875,0.29
23.8778,0.285
23.8806,0.26
23.8833,0.245
23.8861,0.24
23.8889,0.22
23.8917,0.2
23.8944,0.185
23.8972,0.16
23.9,0.14
23.9028,0.125
23.9056,0.095
23.9083,0.055
23.9111,0.03
23.9139,0.0
23.9167,-0.01
23.9194,0.0
23.9222,-0.005
23.925,-0.005
23.9278,-0.02
23.9306,-0.05
23.9333,-0.08
23.9361,-0.125
23.9389,-0.165
23.9417,-0.205
23.9444,-0.235
23.9472,-0.235
23.95,-0.25
23.9528,-0.27
23.9556,-0.305
23.9583,-0.32
23.9611,-0.35
23.9639,-0.365
23.9667,-0.38
23.9694,-0.38
23.9722,-0.37
23.975,-0.365
23.9778,-0.365
23.9806,-0.38
23.9833,-0.4
23.9861,-0.41
23.9889,-0.425
23.9917,-0.405
23.9944,-0.37
23.9972,-0.34
24.0,-0.305
24.0028,-0.275
24.0056,-0.255
24.0083,-0.225
24.0111,-0.2
24.0139,-0.165
24.0167,-0.13
24.0194,-0.1
24.0222,-0.08
24.025,-0.06
24.0278,-0.06
24.0306,-0.065
24.0333,-0.075
24.0361,-0.09
24.0389,-0.105
24.0417,-0.155
24.0444,-0.205
24.0472,-0.27
24.05,-0.325
24.0528,-0.385
24.0556,-0.425
24.0583,-0.445
24.0611,-0.445
24.0639,-0.45
24.0667,-0.45
24.0694,-0.455
24.0722,-0.46
24.075,-0.48
24.0778,-0.49
24.0806,-0.495
24.0833,-0.5
24.0861,-0.47
24.0889,-0.465
24.0917,-0.455
24.0944,-0.455
24.0972,-0.46
24.1,-0.46
24.1028,-0.465
24.1056,-0.47
24.1083,-0.465
24.1111,-0.46
24.1139,-0.465
24.1167,-0.45
24.1194,-0.45
24.1222,-0.45
24.125,-0.47
24.1278,-0.47
24.1306,-0.465
24.1333,-0.465
24.1361,-0.475
24.1389,-0.445
24.1417,-0.345
24.1444,-0.165
24.1472,0.06
24.15,0.375
24.1528,0.76
24.1556,1.155
24.1583,1.555
24.1611,1.88
24.1639,2.06
24.1667,2.025
24.1694,1.775
24.1722,1.39
24.175,0.965
24.1778,0.51
24.1806,0.07
24.1833,-0.31
24.1861,-0.65
24.1889,-0.915
24.1917,-1.125
24.1944,-1.245
24.1972,-1.27
24.2,-1.205
24.2028,-1.11
24.2056,-0.965
24.2083,-0.845
24.2111,-0.765
24.2139,-0.74
24.2167,-0.745
24.2194,-0.76
24.2222,-0.785
24.225,-0.79
24.2278,-0.79
24.2306,-0.79
24.2333,-0.805
24.2361,-0.815
24.2389,-0.84
24.2417,-0.86
24.2444,-0.875
24.2472,-0.89
24.25,-0.88
24.2528,-0.865
24.2556,-0.865
24.2583,-0.86
24.2611,-0.87
24.2639,-0.875
24.2667,-0.885
24.2694,-0.88
24.2722,-0.88
24.275,-0.87
24.2778,-0.87
24.2806,-0.885
24.2833,-0.87
24.2861,-0.875
24.2889,-0.865
24.2917,-0.845
24.2944,-0.83
24.2972,-0.82
24.3,-0.815
24.3028,-0.8
24.3056,-0.805
24.3083,-0.775
24.3111,-0.75
24.3139,-0.73
24.3167,-0.705
24.3194,-0.66
24.3222,-0.635
24.325,-0.61
24.3278,-0.585
24.3306,-0.56
24.3333,-0.515
24.3361,-0.495
24.3389,-0.46
24.3417,-0.435
24.3444,-0.405
24.3472,-0.39
24.35,-0.345
24.3528,-0.325
24.3556,-0.265
24.3583,-0.22
24.3611,-0.175
24.3639,-0.125
24.3667,-0.09
24.3694,-0.055
24.3722,-0.025
